Data
0.026125106
0.021340078
0.011155839
0.000604718
-0.005896171
-0.005567609
0.003898824
0.018402749
0.032772505
0.040279976
0.038781844
0.024684313
0.002978413
-0.023067578
-0.045467375
-0.05975682
-0.064073975
-0.060284779
-0.051710791
-0.04554141
-0.045515389
-0.052742887
-0.067497258
-0.084447053
-0.098256339
-0.103960411
-0.101223272
-0.089619791
-0.075448417
-0.063134231
-0.058817446
-0.064035328
-0.078375367
-0.095613958
-0.110294362
-0.116152484
-0.112476264
-0.100507316
-0.084354118
-0.07044819
-0.063125308
-0.066244255
-0.077740686
-0.092659457
-0.105649866
-0.110356606
-0.105803531
-0.09287361
-0.076332965
-0.064397835
-0.062391549
-0.073377295
-0.094655257
-0.120681062
-0.144424023
-0.155643069
-0.149218926
-0.120668845
-0.072286067
-0.005867778
0.072475712
0.159600302
0.250843654
0.344222162
0.43625523
0.5238762
0.601222759
0.664131495
0.702884621
0.708280659
0.670606661
0.58276227
0.447744301
0.276954361
0.088240403
-0.093945245
-0.245569832
-0.352473469
-0.410728373
-0.426798247
-0.416838172
-0.393783943
-0.370940105
-0.353572582
-0.340627486
-0.329279694
-0.314718525
-0.294508845
-0.269042355
-0.239942918
-0.209677182
-0.18290399
-0.159173136
-0.140435004
-0.124510489
-0.111315543
-0.100368208
-0.091021675
-0.083988199
-0.077992929
-0.073717743
-0.072444524
-0.072897946
-0.07469406
-0.07556536
-0.074247076
-0.070678548
-0.065077701
-0.056513376
-0.048797165
-0.04276646
-0.03924173
-0.039040895
-0.040393109
-0.043935708
-0.046264317
-0.046815336
-0.043757403
-0.039584128
-0.035221266
-0.030639069
-0.027129976
-0.024515767
-0.023555992
-0.024745046
-0.025543507
-0.026941958
-0.027151591
-0.027186728
-0.025153993
-0.023169459
-0.019950122
-0.017228316
-0.016186244
-0.01509109
-0.0162387
-0.016211434
-0.016356792
-0.0143278
-0.010512211
-0.005217354
0.00244299
0.007919129
0.012732771
0.013958452
0.012525104
0.009240533
0.005529285
0.001966271
0.002755725
0.005325708
0.0111742
0.018023255
0.024236823
0.028368417
0.029656991
0.028301177
0.026411972
0.024650786
0.024668301
0.027532349
0.033343185
0.041175784
0.048378991
0.05613698
0.061103108
0.06388471
0.065203342
0.066664919
0.070210913
0.074437436
0.082021271
0.092460092
0.103227148
0.113294729
0.120847527
0.125934622
0.127825225
0.129934514
0.132337624
0.137038269
0.14625001
0.158948589
0.172860915
0.186902127
0.198911023
0.207424238
0.211211424
0.212375342
0.212974441
0.215296781
0.220041496
0.228700915
0.239368237
0.252045552
0.262347946
0.268355561
0.269309088
0.26489665
0.257023886
0.249143542
0.244380296
0.242763001
0.244841755
0.249832183
0.252241433
0.249756611
0.241079241
0.226404836
0.207370575
0.186483241
0.168226798
0.154166932
0.144375126
0.137384033
0.129697311
0.119677474
0.106496533
0.08980708
0.069887487
0.051201287
0.03452167
0.022931557
0.01705946
0.013831481
0.013837107
0.012185408
0.007548314
-0.000985193
-0.012557453
-0.023828908
-0.034808895
-0.040936309
-0.043019991
-0.039693354
-0.03420942
-0.02864065
-0.026766816
-0.031053166
-0.039094791
-0.0497384
-0.060847528
-0.067440226
-0.068786794
-0.063063052
-0.054311756
-0.045715798
-0.039440815
-0.037467896
-0.041847337
-0.048655384
-0.055680005
-0.061592214
-0.062175837
-0.058160814
-0.05134571
-0.042954728
-0.037458194
-0.036288051
-0.039924589
-0.046698467
-0.054389899
-0.061410736
-0.064135324
-0.061885612
-0.056199707
-0.048276785
-0.040797997
-0.037558194
-0.040418067
-0.046970893
-0.056053875
-0.06291878
-0.065628221
-0.061156332
-0.052779975
-0.042610238
-0.03443563
-0.032307604
-0.03639773
-0.045555996
-0.05573791
-0.064142165
-0.067633159
-0.063914761
-0.056014402
-0.045895545
-0.037344386
-0.032549656
-0.034909605
-0.041514073
-0.051494592
-0.060108201
-0.063144782
-0.061127342
-0.053854906
-0.045087442
-0.037496575
-0.03528172
-0.03997466
-0.049880775
-0.062361634
-0.071844786
-0.076173603
-0.073785664
-0.065278293
-0.054155836
-0.044864209
-0.040485557
-0.042588924
-0.049667004
-0.058361594
-0.066379947
-0.070745385
-0.068905759
-0.06228562
-0.054085483
-0.04741922
-0.045128137
-0.04672476
-0.052860239
-0.06150275
-0.067741843
-0.070900117
-0.068526297
-0.062900223
-0.053874599
-0.047133261
-0.043162857
-0.044333146
-0.050427108
-0.058780971
-0.065959142
-0.070690636
-0.071705866
-0.067164611
-0.06053256
-0.053977174
-0.048531067
-0.046346803
-0.048316965
-0.054182381
-0.060061691
-0.066180952
-0.069519497
-0.069136488
-0.067076938
-0.061920212
-0.058163874
-0.05468394
-0.05446619
-0.055686558
-0.058081349
-0.060444336
-0.062054698
-0.060884209
-0.05853014
-0.053929189
-0.048984155
-0.044252402
-0.040802892
-0.037269979
-0.035052833
-0.034561219
-0.03440719
-0.034482002
-0.03491595
-0.034967682
-0.033908736
-0.031953985
-0.029251687
-0.023909422
-0.018014422
-0.011616944
-0.005676593
-5.26E-06
0.003743745
0.007004557
0.008149309
0.010311301
0.013261741
0.016414959
0.021991608
0.02830058
0.034037742
0.03747379
0.03943177
0.038031836
0.034278269
0.030641209
0.025806591
0.019717126
0.013918972
0.005103292
-0.005359431
-0.017110185
-0.030862186
-0.042837699
-0.052434631
-0.057872361
-0.060556394
-0.060996589
-0.061282151
-0.062294588
-0.0659559
-0.070812725
-0.076140262
-0.079552815
-0.079905669
-0.078146435
-0.074777371
-0.070728334
-0.068664075
-0.068974121
-0.071829207
-0.076677603
-0.081396048
-0.086060512
-0.088057036
-0.087109431
-0.084818881
-0.080488637
-0.076280019
-0.074009278
-0.074044524
-0.075735844
-0.078615155
-0.082307884
-0.083819174
-0.084702957
-0.084656337
-0.086295379
-0.091181993
-0.100464651
-0.111653176
-0.123005709
-0.128776684
-0.124244452
-0.104132989
-0.063882958
-0.003277584
0.077828081
0.174581733
0.280606677
0.388308176
0.490506435
0.578144547
0.649175139
0.700048109
0.725379775
0.719318358
0.674855447
0.584969441
0.450165055
0.277817765
0.085804517
-0.10382481
-0.266011762
-0.385243583
-0.452900352
-0.472876805
-0.460239501
-0.429051117
-0.393814084
-0.36513159
-0.344099389
-0.330659777
-0.319778717
-0.306991551
-0.287723203
-0.261878308
-0.229479688
-0.194499897
-0.161338929
-0.131533207
-0.110187531
-0.095340272
-0.087112879
-0.083196157
-0.081102004
-0.077705779
-0.072881595
-0.067382062
-0.063400403
-0.062367618
-0.061439037
-0.061854121
-0.06201727
-0.058875287
-0.052062143
-0.04438072
-0.03545245
-0.028685999
-0.024971781
-0.024603867
-0.026832344
-0.030199599
-0.034512411
-0.036064466
-0.036639777
-0.034924232
-0.031188014
-0.027382063
-0.025008851
-0.023200965
-0.023347279
-0.02438726
-0.025637161
-0.0248164
-0.022880345
-0.018355167
-0.014071188
-0.009422212
-0.006450685
-0.005109414
-0.005966633
-0.00744086
-0.008448593
-0.008199889
-0.006837022
-0.00268885
0.000928418
0.004259369
0.006778956
0.007727259
0.006322881
0.005602744
0.005979161
0.0067019
0.010430804
0.015063536
0.020853834
0.025744572
0.029769575
0.032370983
0.034530365
0.035694775
0.036557134
0.038793798
0.041859029
0.045894867
0.050759018
0.056128628
0.060621266
0.063887673
0.065661148
0.066776784
0.068184765
0.070971597
0.074380284
0.079801345
0.085706112
0.093516386
0.101441475
0.1103458
0.120717824
0.131783839
0.14075406
0.149125548
0.154925348
0.158781193
0.161761841
0.165017756
0.170341271
0.178814986
0.188701797
0.198648492
0.208154486
0.215144289
0.219424545
0.221832908
0.222993248
0.22674254
0.23243125
0.241364608
0.252615164
0.263305274
0.27127837
0.276919069
0.277809153
0.274953282
0.271463041
0.267794876
0.265817225
0.266062378
0.266462759
0.265695422
0.260026513
0.250348107
0.235012834
0.216135359
0.197224871
0.180267632
0.16759586
0.158972885
0.154254128
0.149771524
0.142313722
0.129340912
0.110973127
0.088366572
0.065318853
0.046237046
0.032850456
0.027156079
0.026005237
0.027501739
0.027073918
0.021822347
0.010632984
-0.004372755
-0.021232325
-0.035242057
-0.044352924
-0.045334293
-0.041260293
-0.034126714
-0.027735497
-0.026263744
-0.029057639
-0.038110342
-0.049426407
-0.059140149
-0.064968779
-0.064452289
-0.057510579
-0.047105094
-0.037130294
-0.031951555
-0.033140184
-0.040882195
-0.052283436
-0.062455731
-0.067974766
-0.068161364
-0.06270563
-0.053401924
-0.044097363
-0.039251155
-0.039645915
-0.044732053
-0.052846283
-0.061216674
-0.066373387
-0.0654359
-0.059798305
-0.050963168
-0.042594115
-0.037147304
-0.038594456
-0.045710012
-0.05617973
-0.065480039
-0.072192648
-0.071262595
-0.064736096
-0.054713894
-0.043549465
-0.037599346
-0.036992496
-0.042870358
-0.052368082
-0.062330289
-0.069485596
-0.070641623
-0.066463655
-0.057561373
-0.048866409
-0.04354225
-0.041832783
-0.046268708
-0.053511384
-0.060875942
-0.06632869
-0.067587477
-0.063925952
-0.057399506
-0.048426124
-0.041888823
-0.03909348
-0.041958605
-0.0477204
-0.056244757
-0.063819032
-0.068129383
-0.068071864
-0.063114362
-0.057093435
-0.050533013
-0.04573799
-0.043987793
-0.046110628
-0.050577671
-0.054070536
-0.057311221
-0.057857987
-0.055590548
-0.052723402
-0.049354236
-0.048715317
-0.049394396
-0.052795643
-0.059021778
-0.064209168
-0.069190862
-0.070252391
-0.06871804
-0.063168695
-0.056222526
-0.049961032
-0.046203285
-0.045880186
-0.04972269
-0.054367446
-0.05983889
-0.063238063
-0.063399082
-0.060287387
-0.055004312
-0.049398875
-0.046422892
-0.045453382
-0.048816691
-0.053678452
-0.059336688
-0.06281577
-0.06355474
-0.060950749
-0.054568558
-0.046942976
-0.040042743
-0.036582528
-0.038423114
-0.043269621
-0.051773904
-0.059006084
-0.063130674
-0.062050597
-0.055792972
-0.04650068
-0.036031917
-0.028307842
-0.023637364
-0.023256604
-0.025245368
-0.028850385
-0.031101771
-0.031505786
-0.027569978
-0.02197587
-0.016338614
-0.009638543
-0.004525009
-0.001737538
0.001152451
0.003589308
0.006524713
0.011732546
0.017187851
0.022727305
0.029109049
0.033449456
0.03688271
0.038212012
0.038325313
0.037231757
0.035707743
0.035677328
0.036543199
0.037700465
0.040400995
0.042014021
0.040591639
0.03454312
0.023185231
0.007979173
-0.010627021
-0.027696273
-0.04146949
-0.050973035
-0.055358081
-0.055854644
-0.05535445
-0.055763624
-0.058345542
-0.062278951
-0.0685848
-0.073450672
-0.076846205
-0.078222
-0.07705307
-0.076037373
-0.073875051
-0.072696649
-0.073330755
-0.074661007
-0.078297411
-0.080683655
-0.082614096
-0.083990956
-0.082563708
-0.080391197
-0.077856152
-0.07621343
-0.07581685
-0.077287655
-0.079917285
-0.082524174
-0.083830664
-0.083243166
-0.081770468
-0.078756081
-0.078155364
-0.079242077
-0.084830288
-0.095275726
-0.108610069
-0.122126349
-0.130581412
-0.13096291
-0.116560782
-0.085962879
-0.035608727
0.034315568
0.120624307
0.218268025
0.321453801
0.423338066
0.517023973
0.596843113
0.659164773
0.696157877
0.701961132
0.670579438
0.594565051
0.472252967
0.311108112
0.12468836
-0.066143263
-0.235854595
-0.367513336
-0.449233146
-0.480264094
-0.471314443
-0.437967347
-0.396389932
-0.35880001
-0.332255747
-0.318224751
-0.313107639
-0.308538663
-0.300993045
-0.285107944
-0.260220582
-0.227910836
-0.191703527
-0.156401414
-0.127664511
-0.107368037
-0.094987938
-0.088882787
-0.086004976
-0.083408696
-0.076991239
-0.068184344
-0.057701131
-0.04879715
-0.04568888
-0.04671918
-0.052584877
-0.059547987
-0.065185283
-0.064028298
-0.057483903
-0.045691121
-0.03236459
-0.022052086
-0.017452035
-0.020415303
-0.028001514
-0.036568373
-0.042489044
-0.042860239
-0.037568626
-0.027322952
-0.015643969
-0.007190298
-0.004042225
-0.007577471
-0.017349994
-0.027009365
-0.034913668
-0.035835893
-0.030134834
-0.01996506
-0.006458917
0.003807465
0.009492667
0.007695717
0.001253621
-0.006965485
-0.014500311
-0.015928978
-0.011097244
-0.00050147
0.011298303
0.022004037
0.028148532
0.026333477
0.019694838
0.010443465
0.002667032
-0.000157838
0.003599431
0.014179431
0.028758238
0.042503766
0.051966157
0.054296824
0.050866291
0.043077676
0.034464752
0.029414603
0.029977269
0.037179433
0.049068332
0.061448166
0.072029993
0.079580971
0.081673042
0.081783807
0.079735038
0.079683265
0.083023606
0.090585421
0.10238598
0.1140095
0.125464575
0.13421597
0.138037372
0.138402332
0.137293227
0.137505602
0.140691293
0.149464947
0.161870876
0.177382595
0.193428766
0.20726555
0.217902772
0.222775375
0.223936721
0.22270836
0.222900755
0.224862731
0.231677093
0.241775309
0.254108085
0.265824184
0.274236915
0.277754616
0.276455001
0.271096052
0.265543772
0.261798261
0.261945305
0.26639816
0.271705535
0.275012506
0.275033431
0.268208836
0.253640229
0.234460727
0.212488801
0.191264677
0.175795581
0.164453652
0.158431372
0.152971309
0.146312352
0.134030677
0.116297842
0.093592513
0.069587585
0.047229003
0.030321162
0.021125886
0.019492383
0.021854419
0.024119199
0.023142242
0.015256592
0.000290385
-0.018317294
-0.036366256
-0.049416431
-0.054428978
-0.051918781
-0.043179186
-0.03347729
-0.02650079
-0.026622543
-0.034627424
-0.048384307
-0.063600207
-0.074390675
-0.078090886
-0.072633617
-0.060973607
-0.046388656
-0.035906782
-0.032439059
-0.038313931
-0.05076474
-0.065569507
-0.076611498
-0.081782228
-0.078516619
-0.068384165
-0.056511304
-0.047047622
-0.043247643
-0.04788534
-0.05859476
-0.071383336
-0.082124837
-0.08647198
-0.082472436
-0.071285009
-0.05773191
-0.044860141
-0.039055218
-0.04241486
-0.052988221
-0.067157666
-0.081010281
-0.089177438
-0.087450989
-0.078575803
-0.063933386
-0.050249369
-0.041820473
-0.041928749
-0.048030593
-0.059009143
-0.070376934
-0.07596341
-0.075450229
-0.068187099
-0.056001076
-0.045093494
-0.03845593
-0.037404787
-0.042774355
-0.052048908
-0.06235772
-0.068938918
-0.069516386
-0.064084115
-0.054828844
-0.04425023
-0.035832433
-0.032773304
-0.036236101
-0.04337668
-0.052102416
-0.059251578
-0.061741691
-0.059268695
-0.05232471
-0.044564271
-0.038785822
-0.036920686
-0.03939554
-0.045075468
-0.051769823
-0.057079959
-0.059259679
-0.058779337
-0.055415744
-0.051875402
-0.048125438
-0.045695195
-0.046196447
-0.048207165
-0.052519479
-0.056624337
-0.05923833
-0.060689279
-0.060051901
-0.059026834
-0.056643989
-0.053914791
-0.05254952
-0.051809313
-0.051503394
-0.053096337
-0.053871389
-0.054102723
-0.054208618
-0.051873294
-0.050128246
-0.046376528
-0.043337018
-0.039893205
-0.036858247
-0.035708046
-0.035368371
-0.036149405
-0.038887983
-0.040288426
-0.040369984
-0.038867036
-0.035418919
-0.029443446
-0.023698492
-0.018661171
-0.014943745
-0.013977784
-0.014118432
-0.013171089
-0.010176573
-0.005173513
0.003359715
0.012580994
0.021889263
0.027863161
0.03119409
0.031252771
0.029047034
0.027549782
0.026619353
0.028905368
0.032160569
0.035244291
0.034850285
0.029713406
0.017853451
0.000380403
-0.018465985
-0.03708797
-0.048848324
-0.054450792
-0.053856469
-0.048370027
-0.043836058
-0.043225062
-0.049130918
-0.058750687
-0.071748917
-0.084081004
-0.091485554
-0.091093146
-0.084541756
-0.074163967
-0.063155978
-0.056024682
-0.054889611
-0.061282008
-0.071904893
-0.085459836
-0.095242249
-0.098910942
-0.095763791
-0.088030769
-0.077062866
-0.067712762
-0.064512223
-0.066333316
-0.074042744
-0.082286314
-0.088114
-0.089836774
-0.087416133
-0.08286111
-0.078480691
-0.078271004
-0.086043242
-0.09899634
-0.114270698
-0.125649398
-0.128141313
-0.11384949
-0.080422962
-0.02554943
0.048691006
0.137362509
0.23651962
0.338669987
0.437309891
0.529340523
0.607593567
0.668025396
0.705257019
0.71199995
0.678570844
0.599289002
0.473224582
0.306642508
0.118610398
-0.068441592
-0.232027966
-0.352282219
-0.421371435
-0.444132688
-0.430711587
-0.399357357
-0.363837482
-0.335065115
-0.316439952
-0.30712796
-0.302153632
-0.295882594
-0.284340162
-0.264887088
-0.23802339
-0.206417483
-0.172538566
-0.140403358
-0.11289003
-0.092850231
-0.078951562
-0.071919619
-0.068715643
-0.066226463
-0.064236047
-0.060716607
-0.055720964
-0.051289737
-0.048764026
-0.048731962
-0.050600682
-0.052562573
-0.052595191
-0.051139552
-0.046232695
-0.039074162
-0.032206199
-0.025613491
-0.023060131
-0.021881715
-0.023280698
-0.02399665
-0.02510146
-0.024641176
-0.021914544
-0.019313763
-0.01480492
-0.011241787
-0.008750763
-0.008387197
-0.010162286
-0.012412761
-0.014375608
-0.015771238
-0.015206094
-0.012272722
-0.007327245
-0.002027107
0.002215677
0.003689225
0.003601986
2.79E-06
-0.003569464
-0.00559223
-0.006058832
-0.00381055
0.000407057
0.006184591
0.010911605
0.015313396
0.01588548
0.01607823
0.015162844
0.014814622
0.016546762
0.02118399
0.027559082
0.035545393
0.042425808
0.047480477
0.049593662
0.048665216
0.04667336
0.043354344
0.042601028
0.04378768
0.049262522
0.057197097
0.066857983
0.076214231
0.083668279
0.088646358
0.090828386
0.091924051
0.092066711
0.095039745
0.101617055
0.111263479
0.122312607
0.133564578
0.142089355
0.146940852
0.148515751
0.148419297
0.148882235
0.151940977
0.160683726
0.172843589
0.186892473
0.200603575
0.210874938
0.217508009
0.220650855
0.220740548
0.221966402
0.225455105
0.232482557
0.243006444
0.25369229
0.26442009
0.272078649
0.275348497
0.274181177
0.270799417
0.266224244
0.262512271
0.25999246
0.260787393
0.260792717
0.259113533
0.253785239
0.244503271
0.231088977
0.214524268
0.197553629
0.181014372
0.166153436
0.154186368
0.142255202
0.129787015
0.116104448
0.100050289
0.083392081
0.067864859
0.052852209
0.040841899
0.030870892
0.023168085
0.017117926
0.010540399
0.00516357
-0.001900762
-0.008857308
-0.016204253
-0.023975726
-0.032138153
-0.037978212
-0.042335804
-0.044606889
-0.04453634
-0.043900808
-0.043215394
-0.04457569
-0.047681784
-0.052012933
-0.056063804
-0.059537764
-0.060422749
-0.059934124
-0.058369022
-0.056951377
-0.055742483
-0.05565306
-0.056539371
-0.057323811
-0.059069552
-0.060963893
-0.06321375
-0.065905297
-0.068904065
-0.069858472
-0.071323172
-0.069959137
-0.067722864
-0.064950269
-0.061278307
-0.058415885
-0.056846532
-0.057586476
-0.059111891
-0.06250773
-0.06480002
-0.065350681
-0.064155181
-0.061909107
-0.058794254
-0.058047119
-0.059467839
-0.063064681
-0.066988715
-0.071806595
-0.073025846
-0.071679499
-0.067740595
-0.061191074
-0.05369707
-0.048996556
-0.048225254
-0.050442974
-0.05555662
-0.060689297
-0.064871788
-0.066800665
-0.064370203
-0.058761672
-0.05403782
-0.050381246
-0.05025903
-0.053834502
-0.059861901
-0.066120032
-0.06923413
-0.067580545
-0.061928285
-0.053563627
-0.044836739
-0.03929026
-0.038694342
-0.043355836
-0.050971804
-0.058094192
-0.065039534
-0.067904143
-0.066299175
-0.061520896
-0.056082999
-0.051780353
-0.048634426
-0.050119979
-0.054969847
-0.059637608
-0.064248423
-0.065681401
-0.062374269
-0.057543936
-0.050736438
-0.045873586
-0.044154932
-0.04722945
-0.053950037
-0.061803884
-0.066856341
-0.069852101
-0.067058741
-0.061535914
-0.0557311
-0.051556975
-0.050299829
-0.053769862
-0.059010346
-0.065670049
-0.070893291
-0.071389118
-0.067277596
-0.059399443
-0.050980324
-0.044784157
-0.04107904
-0.04380434
-0.050245854
-0.058330813
-0.066421112
-0.071299855
-0.070980673
-0.066043435
-0.058383045
-0.051478916
-0.046467948
-0.045369152
-0.04974202
-0.055891822
-0.063529107
-0.0686258
-0.069146327
-0.06538962
-0.058830869
-0.050540321
-0.042408763
-0.037470796
-0.035568482
-0.035462361
-0.035328223
-0.035440253
-0.032783524
-0.028378302
-0.02421547
-0.019849145
-0.017813671
-0.017084744
-0.017773826
-0.018147979
-0.015944141
-0.012844357
-0.005932234
0.002027002
0.01056417
0.016724857
0.021430439
0.022844075
0.021618363
0.020956499
0.019490262
0.021038328
0.024337933
0.028836383
0.03459514
0.039315246
0.042455924
0.042399038
0.038611876
0.03177312
0.021842663
0.010068404
-0.002069196
-0.012967996
-0.024054981
-0.03294876
-0.041592618
-0.048312044
-0.054761473
-0.060754265
-0.065011251
-0.068902019
-0.072271736
-0.073431634
-0.074342331
-0.073949457
-0.073565946
-0.073162245
-0.07344301
-0.073656588
-0.074181002
-0.076021593
-0.077403799
-0.079625649
-0.081249328
-0.082586927
-0.081317922
-0.079012005
-0.076350111
-0.073937881
-0.073755641
-0.07443206
-0.076608562
-0.080643037
-0.084785462
-0.08678407
-0.086713009
-0.084716429
-0.08338072
-0.082575396
-0.085799433
-0.093261033
-0.1050307
-0.11659345
-0.124986259
-0.124490137
-0.110633115
-0.079133008
-0.028419197
0.041478483
0.12765086
0.227384375
0.33119138
0.434403209
0.528089469
0.608317397
0.668016583
0.703870666
0.70965682
0.678292686
0.603586984
0.482422769
0.322933097
0.137223987
-0.051636084
-0.220367312
-0.351696898
-0.433590391
-0.468031028
-0.465047491
-0.438971498
-0.404197735
-0.371909383
-0.346249544
-0.328254194
-0.313576966
-0.300737358
-0.284425006
-0.263369403
-0.236446398
-0.205979511
-0.17349731
-0.142413247
-0.116123807
-0.096863213
-0.084368079
-0.077100783
-0.074571119
-0.072260537
-0.067804698
-0.063370188
-0.057463887
-0.052624485
-0.04948629
-0.049561734
-0.051816654
-0.05381504
-0.05399955
-0.050628711
-0.045026249
-0.038059716
-0.03105429
-0.027554944
-0.02639961
-0.02844178
-0.032012895
-0.034937939
-0.035716076
-0.03342556
-0.028024747
-0.021952985
-0.016196927
-0.013181166
-0.012896934
-0.014582443
-0.018055299
-0.021553833
-0.021761667
-0.020633842
-0.01672968
-0.011949648
-0.006795856
-0.00444507
-0.004979079
-0.006044427
-0.009044536
-0.01076895
-0.011210884
-0.009269427
-0.006091214
-0.000950204
0.004264023
0.007743539
0.009386525
0.009134176
0.006922502
0.006294243
0.0058315
0.006618651
0.010916329
0.016138274
0.022110968
0.027502765
0.031264896
0.033940567
0.033758108
0.031503318
0.030235474
0.029950109
0.031292625
0.036397133
0.043879929
0.052972942
0.061750623
0.069388212
0.074388305
0.076722458
0.077852098
0.078617232
0.080011267
0.084892118
0.092705957
0.10230978
0.113963172
0.124516037
0.132756276
0.137818968
0.140520817
0.14249037
0.144021452
0.147670587
0.154717864
0.164676694
0.177040641
0.190385874
0.203824484
0.21466937
0.221077382
0.224424847
0.226251354
0.226760069
0.230032438
0.235236729
0.244132298
0.254078336
0.26457542
0.271164803
0.274361974
0.273268876
0.268612939
0.264168212
0.260749504
0.260144499
0.261390324
0.264687375
0.265010973
0.260215448
0.249227094
0.232872033
0.212007947
0.189884072
0.169948053
0.154538572
0.144961236
0.139313869
0.134150518
0.126753807
0.114544805
0.097093819
0.075334627
0.052880593
0.03268359
0.01953469
0.013977479
0.015058669
0.018027926
0.01973671
0.015212961
0.003811782
-0.011505201
-0.027881944
-0.041013224
-0.046779821
-0.044450305
-0.035984453
-0.027312277
-0.020853989
-0.021839909
-0.029071249
-0.042599225
-0.056451776
-0.067136617
-0.071350171
-0.067239891
-0.056735482
-0.043819277
-0.035011983
-0.031651301
-0.036621278
-0.047018316
-0.058881148
-0.067704531
-0.070156553
-0.064342554
-0.053134017
-0.040440537
-0.031708267
-0.029223167
-0.034868934
-0.045811241
-0.058221778
-0.067756346
-0.070214807
-0.066746325
-0.057143909
-0.047126219
-0.038893881
-0.037522161
-0.041807226
-0.051000753
-0.060520628
-0.067349709
-0.068575282
-0.063477187
-0.053756359
-0.042833145
-0.036503455
-0.035481647
-0.040391408
-0.050581365
-0.059816294
-0.06755669
-0.068319985
-0.064598152
-0.054991236
-0.045527987
-0.037459293
-0.034005349
-0.035540969
-0.042518967
-0.050136273
-0.055459519
-0.057558182
-0.055206214
-0.049896513
-0.042189495
-0.037675731
-0.034972438
-0.037143684
-0.041752341
-0.046495302
-0.050146191
-0.051420707
-0.050427357
-0.046545805
-0.043809568
-0.041063523
-0.041243755
-0.043061484
-0.045196534
-0.047894874
-0.048706162
-0.049053281
-0.049409876
-0.049034146
-0.050393135
-0.052533993
-0.055668842
-0.058137855
-0.059747874
-0.05932397
-0.056226397
-0.052609224
-0.048316374
-0.045472239
-0.044956839
-0.046002748
-0.048093404
-0.050206333
-0.05029037
-0.048760923
-0.045787943
-0.041241931
-0.038314885
-0.036979511
-0.037526647
-0.041392775
-0.044366795
-0.048099638
-0.049703092
-0.049176289
-0.048463182
-0.046097505
-0.045569615
-0.046676409
-0.049134568
-0.052636815
-0.055349167
-0.056658925
-0.055868085
-0.052536482
-0.049313859
-0.04730793
-0.047231827
-0.0496764
-0.053814729
-0.058678934
-0.061917893
-0.062742631
-0.059678321
-0.054807901
-0.049389902
-0.045985116
-0.043431392
-0.045078192
-0.048599128
-0.051475304
-0.051972982
-0.048234414
-0.04004519
-0.028961217
-0.017729032
-0.010216099
-0.007269473
-0.009958661
-0.015513388
-0.020994232
-0.023441212
-0.021049733
-0.012905024
-0.000975492
0.011642926
0.021940386
0.027187227
0.02763303
0.024427143
0.020784469
0.018721183
0.01985931
0.026775752
0.036158216
0.044711135
0.051455825
0.051910321
0.04567974
0.036220627
0.02587062
0.018527375
0.015501153
0.017997235
0.02143407
0.023470409
0.019332284
0.007911483
-0.00980123
-0.031118987
-0.051734815
-0.066039644
-0.073155869
-0.073275353
-0.06817027
-0.061076417
-0.057398763
-0.056758032
-0.059757814
-0.065560851
-0.072038041
-0.076025167
-0.075181931
-0.07311091
-0.068694112
-0.064920199
-0.063679017
-0.066010066
-0.071105006
-0.076057423
-0.081050719
-0.082499536
-0.081681985
-0.078609562
-0.07419284
-0.071047153
-0.071427183
-0.072724295
-0.076728797
-0.079546033
-0.081788395
-0.083553792
-0.084790089
-0.087897739
-0.094735679
-0.104440302
-0.11554378
-0.122754757
-0.122492015
-0.108951786
-0.078269191
-0.02729447
0.042337889
0.130878515
0.231597823
0.337919385
0.444083335
0.541062189
0.62375823
0.686808372
0.72448714
0.73116216
0.699532776
0.621561632
0.497722375
0.33405225
0.144573055
-0.047101077
-0.21781809
-0.349179392
-0.431540251
-0.467303916
-0.466378649
-0.444008428
-0.413447644
-0.38502038
-0.360954962
-0.340072868
-0.322063239
-0.301831478
-0.27837319
-0.253810556
-0.226564185
-0.198984719
-0.172992308
-0.148276115
-0.125386043
-0.10469157
-0.08683119
-0.072072838
-0.060034739
-0.05246794
-0.049177045
-0.049503972
-0.052980163
-0.057691079
-0.06161572
-0.061814469
-0.057996671
-0.049842854
-0.039549758
-0.03037371
-0.025347501
-0.02467797
-0.029462552
-0.035239241
-0.041554179
-0.042325506
-0.038463245
-0.030100704
-0.018945646
-0.010608976
-0.00617582
-0.008586147
-0.016468653
-0.026891627
-0.035129754
-0.039141563
-0.036169913
-0.02782983
-0.014253146
-0.002235359
0.006273142
0.00773011
0.002998405
-0.005615552
-0.014291327
-0.018216904
-0.016095811
-0.006041159
0.006492959
0.017706837
0.023973365
0.024271087
0.018964031
0.009625983
0.002990427
0.000454448
0.004737303
0.014225204
0.026253381
0.036199289
0.04093896
0.040080032
0.034483022
0.027874581
0.022722949
0.023838529
0.030264981
0.041900003
0.053984235
0.064245187
0.068223242
0.066241989
0.060638631
0.054176313
0.050892789
0.053863443
0.062382489
0.073886673
0.086637424
0.096867745
0.101915662
0.104880188
0.104539828
0.104581073
0.108467574
0.116423444
0.126949577
0.139064963
0.151161561
0.159107803
0.163136778
0.165150159
0.165316817
0.168141369
0.175398773
0.185384843
0.197797408
0.210296227
0.220503456
0.227020735
0.229031557
0.230231864
0.23211501
0.235910564
0.242625067
0.2525934
0.26273726
0.271430114
0.276610139
0.278672867
0.276761387
0.27232027
0.26908775
0.266940617
0.266076096
0.264882789
0.26157055
0.254312329
0.242431331
0.226137611
0.207495264
0.189614873
0.175388172
0.16627942
0.159676368
0.155083642
0.147099612
0.134793042
0.115922256
0.094491574
0.070400638
0.050308766
0.036160651
0.028967892
0.027349102
0.027032678
0.025138627
0.01873546
0.006046601
-0.010189184
-0.027365562
-0.041422133
-0.047467667
-0.046963001
-0.040980195
-0.033418596
-0.028475915
-0.028975939
-0.035220542
-0.045832529
-0.057665233
-0.065429072
-0.06739474
-0.062495079
-0.053380574
-0.044396094
-0.039875839
-0.041428015
-0.049890001
-0.063373139
-0.075386277
-0.082599098
-0.082550415
-0.074625426
-0.061913058
-0.048996674
-0.042153533
-0.042672891
-0.049956306
-0.061754779
-0.072448274
-0.078861812
-0.077901693
-0.070368286
-0.059628695
-0.049283349
-0.044356285
-0.045723599
-0.054396152
-0.064931904
-0.074806344
-0.079193841
-0.075456091
-0.065756194
-0.052567297
-0.040282399
-0.035483069
-0.037551769
-0.046167719
-0.057870577
-0.067453015
-0.071620754
-0.068262844
-0.059840182
-0.048756862
-0.040982538
-0.037483978
-0.041087578
-0.04721097
-0.054548723
-0.059418022
-0.059216259
-0.055411797
-0.049688948
-0.044213629
-0.041336144
-0.043262371
-0.049222018
-0.056449031
-0.062955789
-0.06676607
-0.067098731
-0.062029978
-0.05538693
-0.047942681
-0.044262458
-0.044679646
-0.048811455
-0.055790644
-0.062091895
-0.06459273
-0.063425208
-0.059275958
-0.05303133
-0.047939002
-0.045652537
-0.046562384
-0.04968428
-0.054133656
-0.057966607
-0.05901871
-0.057383194
-0.055332273
-0.052728149
-0.05118885
-0.052375661
-0.053711497
-0.057649327
-0.059369416
-0.06059745
-0.060182866
-0.058180693
-0.055396267
-0.054587406
-0.054671324
-0.056286805
-0.058912866
-0.060505648
-0.059387887
-0.056008292
-0.049234356
-0.043035042
-0.038669835
-0.03771776
-0.040359995
-0.045234752
-0.050948889
-0.054053108
-0.051083219
-0.044227723
-0.033324385
-0.023161145
-0.017348632
-0.017220808
-0.022224492
-0.031070358
-0.037610292
-0.041103229
-0.037359502
-0.028287536
-0.01459803
-0.002759781
0.006388675
0.008814632
0.005768063
0.001345465
-0.001707546
-0.000489681
0.006863638
0.017778611
0.031813422
0.04299337
0.049390478
0.05031791
0.045651831
0.037134521
0.029918766
0.023922208
0.020645935
0.0199363
0.018799182
0.012957348
0.002541052
-0.013758711
-0.034538722
-0.054604775
-0.06961079
-0.076772554
-0.074977816
-0.066848806
-0.057725627
-0.052966358
-0.055232399
-0.065436287
-0.079769531
-0.093802045
-0.103221111
-0.103524592
-0.097000934
-0.084610385
-0.072816138
-0.063828416
-0.062954922
-0.068706663
-0.080007399
-0.092417921
-0.100886655
-0.103333763
-0.098446683
-0.088381088
-0.077495663
-0.067628902
-0.063601524
-0.066531394
-0.074220261
-0.084445209
-0.092632797
-0.097250088
-0.098368559
-0.098192365
-0.097755448
-0.101317362
-0.108097608
-0.115842269
-0.118377303
-0.108908216
-0.080534351
-0.030371941
0.043151055
0.136925619
0.244443765
0.35620432
0.462677845
0.555456522
0.62955098
0.678139657
0.698288651
0.683158468
0.62800387
0.52994403
0.390168515
0.218076399
0.031886473
-0.14751539
-0.299407269
-0.407380095
-0.466322296
-0.481837881
-0.465939774
-0.434164546
-0.397492047
-0.364526595
-0.33827762
-0.318619798
-0.303225414
-0.289565814
-0.276555295
-0.26256765
-0.247825004
-0.229425901
-0.207431955
-0.182405625
-0.154597937
-0.127706411
-0.102878595
-0.08352944
-0.069617529
-0.062254293
-0.060805413
-0.062863851
-0.066535002
-0.070348262
-0.072847064
-0.070620275
-0.064344181
-0.054389706
-0.043723704
-0.035126112
-0.032035312
-0.034499682
-0.041681678
-0.049140522
-0.055798916
-0.056209757
-0.049602413
-0.039265168
-0.028084099
-0.019403876
-0.015661622
-0.018351417
-0.023756068
-0.029578756
-0.032241086
-0.029334658
-0.021637233
-0.011267484
-0.002892905
0.001711319
0.000184137
-0.008432906
-0.0186523
-0.02748092
-0.028986602
-0.022874012
-0.009437255
0.00550468
0.018682494
0.02304926
0.018393323
0.007247196
-0.007280196
-0.017696589
-0.020884428
-0.014733132
-0.000996821
0.01597077
0.029510687
0.037480259
0.037886671
0.030686494
0.0214302
0.013884849
0.012171892
0.017150533
0.02868294
0.042072225
0.053503345
0.059922664
0.059619431
0.054889878
0.047525438
0.04332828
0.045237963
0.053803076
0.06859316
0.084774927
0.098619855
0.105347803
0.10558479
0.100870387
0.095026977
0.092649557
0.096315008
0.108211652
0.125716476
0.146070112
0.162869249
0.17378204
0.178815362
0.177649819
0.173931044
0.171814986
0.174349318
0.183324031
0.197026591
0.213973743
0.230309314
0.242305805
0.249382577
0.251258983
0.250210011
0.250743608
0.254234739
0.261050269
0.271488231
0.282524424
0.290042937
0.292049621
0.289393951
0.283737504
0.275815143
0.269312156
0.263818085
0.260266467
0.257057595
0.251780033
0.243211927
0.231187313
0.214988333
0.197133122
0.179680526
0.163362377
0.150907209
0.141820479
0.133683313
0.12481331
0.111988657
0.094926763
0.074329316
0.053500455
0.032727889
0.016710298
0.005281305
-0.002460705
-0.007692035
-0.012293296
-0.018433979
-0.024501301
-0.030402857
-0.03510078
-0.038128002
-0.039843102
-0.041297123
-0.044762254
-0.049129897
-0.054453176
-0.058853708
-0.06085587
-0.059020489
-0.05460803
-0.049973726
-0.045500436
-0.04506928
-0.049271928
-0.055693261
-0.064581164
-0.073070481
-0.078898876
-0.081338251
-0.079958583
-0.072891705
-0.064456327
-0.055266802
-0.050170139
-0.050443815
-0.055598839
-0.064897874
-0.073408335
-0.078183098
-0.077092542
-0.069955183
-0.062886359
-0.057098924
-0.055620192
-0.060438885
-0.066439206
-0.071173622
-0.072190682
-0.066403733
-0.057955935
-0.048223958
-0.041937202
-0.041740827
-0.047759246
-0.057728313
-0.069050484
-0.077768692
-0.080091588
-0.074879093
-0.064503803
-0.051741123
-0.040718465
-0.035323807
-0.037690505
-0.046351458
-0.058398786
-0.067594395
-0.072004654
-0.069525367
-0.060703067
-0.048530992
-0.037296736
-0.031927845
-0.032477104
-0.041334497
-0.053469567
-0.065607106
-0.072877471
-0.073301116
-0.065534999
-0.05259831
-0.038692144
-0.027577007
-0.022138053
-0.024688234
-0.03326776
-0.045810377
-0.055714697
-0.061210193
-0.060997111
-0.055928747
-0.04987762
-0.046237933
-0.047646505
-0.054406553
-0.064816654
-0.074254298
-0.078577967
-0.078302252
-0.072104305
-0.064490632
-0.056780883
-0.051821536
-0.051930499
-0.055465686
-0.061155602
-0.065032185
-0.06558261
-0.062670762
-0.056889178
-0.049237752
-0.043289032
-0.040187823
-0.040876157
-0.04582437
-0.050336748
-0.054274794
-0.05589136
-0.052448616
-0.04740138
-0.041113042
-0.035255442
-0.032153568
-0.032333233
-0.034424964
-0.037421004
-0.039142412
-0.03670539
-0.02980151
-0.019706024
-0.009052868
-0.000508565
0.004497556
0.005877285
0.004804485
0.004526434
0.004184707
0.005746828
0.008080563
0.011118838
0.013008362
0.014137891
0.017002974
0.019953876
0.023947281
0.028440734
0.029516981
0.026222234
0.017993269
0.002985586
-0.013866411
-0.032125992
-0.046392015
-0.056896001
-0.06190566
-0.064738074
-0.065333389
-0.066523275
-0.070271188
-0.075198899
-0.081621208
-0.086117435
-0.088447929
-0.087467029
-0.083660164
-0.078061039
-0.072541506
-0.068721198
-0.068912845
-0.071528651
-0.075210747
-0.080671544
-0.083944502
-0.084567192
-0.084223555
-0.083566945
-0.083259682
-0.084577474
-0.087113048
-0.090093761
-0.093603354
-0.093650766
-0.091693022
-0.087028339
-0.08050956
-0.074279873
-0.073608757
-0.079260931
-0.092024394
-0.109975479
-0.125782886
-0.133952676
-0.125546918
-0.095715582
-0.04444311
0.02679217
0.114328682
0.210106185
0.310237864
0.408758417
0.499250472
0.579484348
0.643590006
0.685465027
0.698035247
0.672657478
0.60251279
0.484455081
0.325602472
0.140057744
-0.051519453
-0.223322113
-0.35524183
-0.436439036
-0.468034418
-0.460660267
-0.430051592
-0.392225724
-0.358953509
-0.334106734
-0.319123355
-0.308399149
-0.298060043
-0.2844298
-0.265634293
-0.242123977
-0.216315627
-0.189889764
-0.164402991
-0.142740953
-0.123603987
-0.10781652
-0.093939284
-0.081559156
-0.072770623
-0.065686065
-0.062189763
-0.061435266
-0.062669873
-0.064826347
-0.065012857
-0.06368215
-0.059007001
-0.050926482
-0.042474274
-0.034292078
-0.028549392
-0.026710918
-0.026632759
-0.029319929
-0.030406332
-0.0291354
-0.025436221
-0.02067363
-0.015800004
-0.014884802
-0.016242544
-0.020524443
-0.026131196
-0.032155686
-0.034841395
-0.035338525
-0.031435737
-0.025977535
-0.01782441
-0.010408561
-0.004099155
0.001346503
0.004025883
0.004752737
0.003628642
0.002533189
-0.000238274
-0.002040837
-0.002642633
-0.000813422
0.002058635
0.00514171
0.008049956
0.008508163
0.007958187
0.007301991
0.005912726
0.005919011
0.007636047
0.009940977
0.014405782
0.019104799
0.024161498
0.030225001
0.038112903
0.045798351
0.051776936
0.053681525
0.052893512
0.046882248
0.040103849
0.034469379
0.033577974
0.040023582
0.053072493
0.069871099
0.088130805
0.102035251
0.10900876
0.109022916
0.104291349
0.098445743
0.095501906
0.099024007
0.106832532
0.118396449
0.130780302
0.141789415
0.147864178
0.15135911
0.153075493
0.158208885
0.166109657
0.179339826
0.195405235
0.212285363
0.226571982
0.235784538
0.238351822
0.237870366
0.234525816
0.232888495
0.234541573
0.239071886
0.247819083
0.256488842
0.262401776
0.2629014
0.258379355
0.250520563
0.241670055
0.237561514
0.238894034
0.245302697
0.254117325
0.259000825
0.256220992
0.244067866
0.2228753
0.197259956
0.171492511
0.151247669
0.137213858
0.130091627
0.12735545
0.123858531
0.118039177
0.105263165
0.088793322
0.067028172
0.045934997
0.026908246
0.013495391
0.005471218
0.002597766
0.001140247
-7.63E-05
-0.003480613
-0.010884735
-0.020242007
-0.0310997
-0.039551832
-0.04431954
-0.044555167
-0.04008669
-0.033039336
-0.025004
-0.020079922
-0.018147234
-0.020620301
-0.028742043
-0.03927872
-0.050338792
-0.06101418
-0.068628671
-0.071535931
-0.071575099
-0.068403989
-0.064952686
-0.062174318
-0.061147995
-0.060461482
-0.059714338
-0.056961766
-0.051963367
-0.046184223
-0.040582944
-0.038281656
-0.039231271
-0.044964944
-0.053489753
-0.062321463
-0.069634242
-0.072480856
-0.071034897
-0.067807697
-0.061794629
-0.055510471
-0.049887892
-0.045042036
-0.042945515
-0.042099836
-0.04431262
-0.047677593
-0.05180036
-0.056229143
-0.058964132
-0.05886754
-0.055806629
-0.052440702
-0.049688856
-0.049043989
-0.051978131
-0.056676263
-0.062233172
-0.067281219
-0.067846201
-0.064121542
-0.056856364
-0.048178396
-0.039878364
-0.036393555
-0.038861613
-0.04661318
-0.057325478
-0.06681648
-0.071210227
-0.070045263
-0.062897308
-0.052253044
-0.041648113
-0.034366843
-0.03318356
-0.035629838
-0.041089466
-0.047716264
-0.052853312
-0.053427944
-0.049788071
-0.041642314
-0.033099537
-0.027148446
-0.027142111
-0.033865696
-0.04655749
-0.059897933
-0.070611803
-0.073086777
-0.067392929
-0.056304109
-0.043295178
-0.033878729
-0.032902232
-0.040450977
-0.053780961
-0.068320049
-0.077370644
-0.077876912
-0.069588868
-0.056178271
-0.042254669
-0.032645776
-0.032586661
-0.039499866
-0.051828074
-0.064985173
-0.073070012
-0.074699416
-0.069272043
-0.058189406
-0.045953185
-0.037480256
-0.035269151
-0.040104483
-0.050780468
-0.063940142
-0.073708875
-0.077506747
-0.072363296
-0.062250691
-0.049322448
-0.038353494
-0.032970363
-0.034329959
-0.039729006
-0.045273792
-0.048345267
-0.045305434
-0.03781241
-0.026268438
-0.014254243
-0.007178856
-0.00665664
-0.013210899
-0.023768928
-0.034112259
-0.040093265
-0.037155824
-0.02660088
-0.009147165
0.00939377
0.023183638
0.030758252
0.030250572
0.024005369
0.015387866
0.008883153
0.006831115
0.012256972
0.023205119
0.03679027
0.048919721
0.056408527
0.057085066
0.050505601
0.038048153
0.021379042
0.003499732
-0.011285385
-0.023128275
-0.02987904
-0.032749261
-0.034530831
-0.036645546
-0.042345368
-0.050321787
-0.058840306
-0.067341925
-0.071304375
-0.072077509
-0.069421745
-0.065578464
-0.061853499
-0.060851268
-0.062609044
-0.066913702
-0.0720265
-0.076911758
-0.078902407
-0.078590332
-0.074649451
-0.069312976
-0.064332942
-0.060418609
-0.060327622
-0.06290999
-0.068434248
-0.073441869
-0.078202576
-0.079635272
-0.078388316
-0.074701799
-0.071734633
-0.07221647
-0.075521331
-0.085473487
-0.099307387
-0.115166039
-0.126342268
-0.128203712
-0.115488805
-0.083511609
-0.030828695
0.042897019
0.131813033
0.232261682
0.337134481
0.43869286
0.530534018
0.607689278
0.667165893
0.705460457
0.714597732
0.687067093
0.617702289
0.501197677
0.343708017
0.156934849
-0.035717784
-0.210994593
-0.347346746
-0.4336243
-0.469270941
-0.464565241
-0.434804239
-0.397721496
-0.36472383
-0.341606442
-0.328233772
-0.319315087
-0.308993026
-0.293654955
-0.269288612
-0.238870573
-0.203637088
-0.168506725
-0.137244348
-0.113054897
-0.098134979
-0.090350494
-0.087785063
-0.086576995
-0.083355261
-0.076737829
-0.067710139
-0.057123016
-0.048878528
-0.045485354
-0.046521073
-0.051193657
-0.056780292
-0.058395285
-0.056422205
-0.049080037
-0.038925026
-0.027491241
-0.020591725
-0.018919719
-0.022465211
-0.029947182
-0.038078488
-0.042173776
-0.042494574
-0.036838792
-0.027176244
-0.0174923
-0.010291556
-0.007325936
-0.010010307
-0.016718096
-0.022816486
-0.028032022
-0.028630879
-0.024987199
-0.01735665
-0.008973459
-0.002832924
0.000380133
-0.001166921
-0.006612245
-0.011160874
-0.01513869
-0.014939713
-0.010531132
-0.004363082
0.002243497
0.007974123
0.010330039
0.011087133
0.010271245
0.008700897
0.008297552
0.008426218
0.011491249
0.015898242
0.020352743
0.026354154
0.030695561
0.034805441
0.036845167
0.037570515
0.037039259
0.037278392
0.037011686
0.03950682
0.043554081
0.049554298
0.056679414
0.064069987
0.070038771
0.075249355
0.077832925
0.079402637
0.080935593
0.083523733
0.088042328
0.094831053
0.104504353
0.114986667
0.124801427
0.134548985
0.140422478
0.14457059
0.148147199
0.150988513
0.155997042
0.16343667
0.173401303
0.18567957
0.198105199
0.208301075
0.215562817
0.219551834
0.220515765
0.219917163
0.220573127
0.223605871
0.230597128
0.239284336
0.249946195
0.258366159
0.263032673
0.263126043
0.257902551
0.251301447
0.244892817
0.2425436
0.24230273
0.244940966
0.247344633
0.24564079
0.237646076
0.223094482
0.204168142
0.18310947
0.163039474
0.146414471
0.135702107
0.12978646
0.124343625
0.118062713
0.106261847
0.088290255
0.067179744
0.044287515
0.024053512
0.011334466
0.006942933
0.009947682
0.017006747
0.022613796
0.020790617
0.009586759
-0.009181941
-0.03123698
-0.051069356
-0.06363471
-0.066870825
-0.060465163
-0.04758545
-0.034679417
-0.026800977
-0.02709608
-0.035016624
-0.04855146
-0.062377476
-0.071488329
-0.072683914
-0.067364115
-0.055339806
-0.043747527
-0.035489117
-0.0337881
-0.039399424
-0.048753546
-0.057960277
-0.063278294
-0.063492165
-0.058687811
-0.051155545
-0.044482355
-0.041194648
-0.044467887
-0.051377215
-0.060945828
-0.06794316
-0.072109817
-0.070342153
-0.063404402
-0.053929622
-0.044743025
-0.03778783
-0.036064456
-0.039966488
-0.047230449
-0.054480542
-0.061135327
-0.063328205
-0.061512889
-0.056562137
-0.050363682
-0.044095671
-0.040461504
-0.040152815
-0.041703763
-0.045747469
-0.049545995
-0.053586959
-0.055042858
-0.054961528
-0.052162436
-0.049911426
-0.046503955
-0.044891919
-0.044451359
-0.045930259
-0.048561357
-0.052289808
-0.054052629
-0.055049275
-0.053951004
-0.050005699
-0.046006412
-0.042112257
-0.038543695
-0.038216694
-0.039417633
-0.042633677
-0.047625981
-0.052763866
-0.055544543
-0.055138539
-0.050763022
-0.04571895
-0.040032576
-0.037786296
-0.038355388
-0.043830657
-0.05186763
-0.060063834
-0.064771139
-0.06407186
-0.059558199
-0.05159882
-0.043948633
-0.038801202
-0.038607208
-0.044097075
-0.052897745
-0.061929731
-0.067480451
-0.068581497
-0.06317761
-0.054626248
-0.045299931
-0.039398116
-0.038386053
-0.045642592
-0.056845808
-0.068364934
-0.076551061
-0.077468292
-0.070418842
-0.057669507
-0.043071744
-0.032681741
