Data
0.010236536
0.034045269
0.063278271
0.080090919
0.071427761
0.041355767
0.001046467
-0.039586899
-0.084532285
-0.126490286
-0.157716275
-0.179753418
-0.190938961
-0.185607876
-0.161971309
-0.119702439
-0.080309739
-0.048409193
-0.022018093
-0.006982635
-0.008622698
-0.018635933
-0.028257721
-0.047631746
-0.070315068
-0.092826188
-0.114146077
-0.125098901
-0.131566678
-0.135524573
-0.131914522
-0.115398934
-0.098049887
-0.078031111
-0.058321469
-0.037512645
-0.024694546
-0.025423897
-0.026758187
-0.028330528
-0.036441485
-0.051150022
-0.063354886
-0.075866934
-0.084479287
-0.093044118
-0.105561842
-0.108281553
-0.102802924
-0.093162152
-0.081880527
-0.070955493
-0.060781309
-0.050998393
-0.043284984
-0.02911864
-0.016545104
-0.023995488
-0.035188173
-0.040139547
-0.047289633
-0.061727978
-0.077486024
-0.088848243
-0.087628848
-0.078365058
-0.072391486
-0.058780757
-0.040159287
-0.024429788
-0.0104491
-0.002718221
0.000860845
0.002119169
-0.002376241
-0.010448799
-0.019542451
-0.032011547
-0.037416472
-0.034771232
-0.035699411
-0.038473026
-0.029931222
-0.018298133
-0.012937299
-0.011090545
-0.00965039
-0.013006922
-0.021994604
-0.033944777
-0.037829671
-0.04846733
-0.058746899
-0.059831884
-0.062305168
-0.062232171
-0.064134859
-0.065885967
-0.060546691
-0.04917976
-0.049671912
-0.054595593
-0.053130358
-0.057052293
-0.06478733
-0.077513986
-0.089294504
-0.097211435
-0.107489042
-0.116584483
-0.116240866
-0.117501297
-0.116688499
-0.112357758
-0.110231735
-0.101124667
-0.089861682
-0.090197391
-0.089737401
-0.088867223
-0.096694767
-0.10601454
-0.113302495
-0.121749297
-0.13033595
-0.134949409
-0.136527859
-0.134217434
-0.133516221
-0.128379211
-0.111260807
-0.095079727
-0.085103739
-0.077766558
-0.076443557
-0.076223526
-0.069717947
-0.070945558
-0.078318301
-0.081736805
-0.092782588
-0.108974163
-0.117039639
-0.125152514
-0.129082144
-0.123225511
-0.120509977
-0.117183273
-0.116531688
-0.119584916
-0.120871948
-0.12828493
-0.138087521
-0.144074686
-0.141857583
-0.138217393
-0.14145204
-0.142635029
-0.141718073
-0.141437609
-0.137024818
-0.127761822
-0.124464579
-0.127996987
-0.133924875
-0.14140015
-0.146326452
-0.145804505
-0.135797691
-0.108907634
-0.061116576
0.001653839
0.088295551
0.194657653
0.297090446
0.398323444
0.496541385
0.575473624
0.633295435
0.681159884
0.724234749
0.764202002
0.805273674
0.850870017
0.916176431
1.006830101
1.118977652
1.258890786
1.41123584
1.542980645
1.660807556
1.76480608
1.833160169
1.848535947
1.819918739
1.762737549
1.668235856
1.530178806
1.376105198
1.243416587
1.15062959
1.091094102
1.038402956
0.986600618
0.946160399
0.909565877
0.859226661
0.790400191
0.689790653
0.568553268
0.442537112
0.289733265
0.115033526
-0.039476534
-0.156388807
-0.241683474
-0.289989123
-0.285187004
-0.236273931
-0.175530426
-0.121161266
-0.066663046
-0.025212968
-0.002358707
0.004774735
-0.008354115
-0.031172343
-0.069976856
-0.119231576
-0.157928952
-0.174768078
-0.179948237
-0.179458068
-0.166840277
-0.148510131
-0.126784614
-0.104823868
-0.090690644
-0.079697927
-0.07514861
-0.087488305
-0.107810132
-0.125584754
-0.133452103
-0.134909204
-0.136759917
-0.138249382
-0.127875846
-0.112940364
-0.108946993
-0.108992239
-0.104278467
-0.101853565
-0.109626313
-0.122645292
-0.134572112
-0.138239116
-0.140165691
-0.134918684
-0.120238153
-0.111901662
-0.106357324
-0.097205484
-0.093641048
-0.087976347
-0.090346754
-0.104662127
-0.118814875
-0.131101391
-0.142768872
-0.148573669
-0.150235347
-0.142692888
-0.128111036
-0.112636805
-0.095957821
-0.075754666
-0.06316042
-0.061338118
-0.068261436
-0.082741222
-0.093689455
-0.100563424
-0.115896545
-0.124805499
-0.12436962
-0.113806028
-0.099407061
-0.087255918
-0.079781955
-0.073249346
-0.068285445
-0.071545729
-0.082582942
-0.095945288
-0.107481178
-0.116785865
-0.125697048
-0.126737545
-0.120415241
-0.112320733
-0.097005064
-0.07866484
-0.066700721
-0.063239846
-0.061718598
-0.065608254
-0.067335774
-0.078411752
-0.100735739
-0.107014308
-0.109206275
-0.117906315
-0.123593068
-0.113697087
-0.101481438
-0.090765449
-0.087552376
-0.082638677
-0.072283139
-0.075998742
-0.084502587
-0.089825545
-0.096550774
-0.105125405
-0.114177621
-0.114773758
-0.11556614
-0.119807936
-0.12224074
-0.114887363
-0.108800875
-0.108827625
-0.106435765
-0.102643644
-0.099058418
-0.101009875
-0.10574345
-0.107624262
-0.103303084
-0.10080549
-0.099524317
-0.093118612
-0.08834418
-0.089856716
-0.095034802
-0.098865474
-0.097920739
-0.10043257
-0.10045137
-0.098053571
-0.090552372
-0.088664175
-0.088592348
-0.087007626
-0.078926854
-0.068513951
-0.062844166
-0.057681105
-0.052313812
-0.057488874
-0.063452683
-0.066095935
-0.072171032
-0.075537912
-0.070388012
-0.06540088
-0.063802144
-0.061312196
-0.053997455
-0.042055893
-0.032581343
-0.029354512
-0.025702028
-0.022449846
-0.025977246
-0.031356908
-0.038549379
-0.040610323
-0.038867979
-0.040036327
-0.040244348
-0.033980269
-0.021967479
-0.012002332
-0.013790297
-0.011815109
-0.002266187
0.002964777
0.001223192
0.003986039
0.006739453
0.002869395
0.004590204
0.011925091
0.015738933
0.015810569
0.016922267
0.018940372
0.028864182
0.03282904
0.032062113
0.035802427
0.037206928
0.036269278
0.041776145
0.045317416
0.047353699
0.04332988
0.033810725
0.032606912
0.025859429
0.010057546
-2.08E-05
-0.002440227
-0.005287566
-0.005864566
-0.010852044
-0.013407917
-0.00617321
-0.002178643
-0.000665278
0.001148197
-0.000693945
-0.003685307
-0.010742348
-0.024200354
-0.031925181
-0.041521692
-0.056599285
-0.066042064
-0.065228994
-0.065158522
-0.067450954
-0.074226597
-0.074883221
-0.068817452
-0.067146707
-0.065488669
-0.064843763
-0.072604963
-0.086692844
-0.097787608
-0.103609407
-0.106187943
-0.105064435
-0.105383118
-0.09985278
-0.092586372
-0.087852822
-0.081794194
-0.07716912
-0.078178356
-0.0784112
-0.080925974
-0.083449071
-0.088651413
-0.094443857
-0.09422809
-0.08804794
-0.084606297
-0.081140737
-0.073180781
-0.060235219
-0.055473534
-0.062468037
-0.075051867
-0.082325013
-0.091810428
-0.109731474
-0.130356582
-0.145342545
-0.145007281
-0.13347642
-0.123673029
-0.114151085
-0.108804634
-0.107509448
-0.101767504
-0.100423916
-0.111511291
-0.124250933
-0.136209059
-0.145575627
-0.158509686
-0.169482959
-0.173555078
-0.169528818
-0.160958611
-0.147015362
-0.134238909
-0.125230738
-0.118349595
-0.113469712
-0.116846427
-0.121110486
-0.124385356
-0.128497131
-0.132229155
-0.130566695
-0.136881866
-0.138024185
-0.131303892
-0.125378734
-0.120075099
-0.119186988
-0.115298867
-0.106670754
-0.108207981
-0.114517815
-0.112035015
-0.10918318
-0.107531469
-0.102908615
-0.100447229
-0.095548579
-0.093777277
-0.0967121
-0.091789736
-0.087180087
-0.094724522
-0.09895377
-0.095183458
-0.097666725
-0.103769451
-0.109127364
-0.110747485
-0.098028141
-0.087689879
-0.093629761
-0.095729382
-0.093658369
-0.097717369
-0.108757001
-0.115193337
-0.118119613
-0.122492539
-0.137354552
-0.142044376
-0.136349585
-0.138566324
-0.137450683
-0.127069355
-0.11657921
-0.113981434
-0.117902435
-0.125449111
-0.126171177
-0.131141086
-0.137137201
-0.136893669
-0.13436559
-0.133953886
-0.128641819
-0.120012842
-0.111143931
-0.099394482
-0.090132977
-0.085457118
-0.087965184
-0.091626354
-0.098777764
-0.112250136
-0.125597353
-0.131383854
-0.135471612
-0.136248382
-0.130750765
-0.126657107
-0.129151795
-0.122688714
-0.115702047
-0.112323036
-0.114159759
-0.11918368
-0.121744684
-0.126709967
-0.135697071
-0.146352693
-0.144620254
-0.135942514
-0.132359589
-0.132484777
-0.122365822
-0.108262379
-0.102386885
-0.107662362
-0.103545933
-0.10095214
-0.110288823
-0.116594891
-0.118748702
-0.125702207
-0.13369203
-0.135384964
-0.131930228
-0.126910992
-0.129208746
-0.129811627
-0.121608316
-0.118210523
-0.118839521
-0.120297472
-0.124025808
-0.131234738
-0.137073826
-0.137806425
-0.138951734
-0.133366813
-0.134254977
-0.129103157
-0.120565688
-0.116322245
-0.117941413
-0.122778099
-0.11692374
-0.111215515
-0.117297326
-0.126714528
-0.129018258
-0.126855111
-0.134023389
-0.141486683
-0.140346622
-0.133786556
-0.13200428
-0.136153329
-0.134308665
-0.133464847
-0.133565114
-0.126550778
-0.119414286
-0.116237808
-0.114202838
-0.114564044
-0.114590678
-0.107488602
-0.108322915
-0.111963189
-0.110069777
-0.110130964
-0.110548813
-0.109759096
-0.109360781
-0.107225687
-0.102560702
-0.09790337
-0.09004521
-0.08589301
-0.089293062
-0.091853401
-0.093802105
-0.099914443
-0.107528842
-0.112653819
-0.121148637
-0.130943926
-0.139258321
-0.138766014
-0.127678439
-0.123719885
-0.12599822
-0.120793891
-0.108308134
-0.101421106
-0.10850994
-0.114365618
-0.115227852
-0.118933087
-0.125147026
-0.125634964
-0.12651446
-0.126437677
-0.114664573
-0.100010427
-0.093677251
-0.086003187
-0.07818161
-0.072008733
-0.068713213
-0.073904629
-0.079653056
-0.078684408
-0.080651517
-0.082424347
-0.084337928
-0.081344648
-0.072037009
-0.06353382
-0.055251536
-0.045607035
-0.041713301
-0.044132021
-0.047736221
-0.053714012
-0.062715612
-0.069116136
-0.075342253
-0.078196859
-0.069115344
-0.061300088
-0.056703874
-0.046863137
-0.036612186
-0.030733634
-0.026613331
-0.024967482
-0.030695521
-0.046887636
-0.068985512
-0.083065149
-0.091187254
-0.101748442
-0.117767316
-0.121053273
-0.108229266
-0.093608177
-0.09094994
-0.090147851
-0.080903692
-0.076450489
-0.086369834
-0.094530443
-0.098150636
-0.107964552
-0.123454619
-0.141104174
-0.148625069
-0.150124668
-0.15019203
-0.148900505
-0.14173962
-0.128499837
-0.117137882
-0.107647816
-0.096955469
-0.085843834
-0.079907577
-0.077528424
-0.0758613
-0.081823869
-0.094088007
-0.104078705
-0.114991042
-0.122837237
-0.13053208
-0.137016739
-0.139409812
-0.142163388
-0.143194118
-0.1339576
-0.119440256
-0.108056111
-0.100454226
-0.097262336
-0.095809024
-0.093876251
-0.103533299
-0.115091334
-0.12119635
-0.132051229
-0.144730458
-0.15152961
-0.151281218
-0.149572062
-0.149814391
-0.142152217
-0.12121795
-0.107787205
-0.104403279
-0.103052046
-0.103959879
-0.106562759
-0.107658339
-0.116711974
-0.125251368
-0.124260913
-0.125481966
-0.123541469
-0.119866057
-0.124385601
-0.132079218
-0.122457479
-0.110097062
-0.107342372
-0.11426104
-0.117891206
-0.104756915
-0.076566525
-0.042960827
0.008845848
0.088680242
0.183388856
0.280222717
0.369589636
0.458056405
0.532422371
0.584656537
0.628500955
0.673594117
0.715051718
0.758543891
0.808008623
0.870220592
0.951476379
1.05165052
1.178821129
1.327567015
1.453917239
1.552810946
1.63982363
1.693856003
1.701476284
1.66865908
1.598766036
1.487747503
1.35168628
1.211927746
1.101121769
1.03052477
0.971869633
0.919013358
0.888434628
0.856500903
0.818285246
0.77061283
0.699974636
0.591969454
0.452020603
0.307245164
0.165506615
0.008828234
-0.142542439
-0.251068991
-0.313517932
-0.321931672
-0.286824787
-0.235589586
-0.182240425
-0.129742424
-0.091238447
-0.060496643
-0.039849611
-0.044796463
-0.073310811
-0.114765949
-0.153278168
-0.18220029
-0.205481812
-0.217650476
-0.207253391
-0.184706185
-0.161613979
-0.136725618
-0.110744512
-0.09223501
-0.083831429
-0.095885962
-0.10459735
-0.115564205
-0.135624788
-0.156794712
-0.167104129
-0.168166782
-0.166376919
-0.15371212
-0.142203181
-0.130199094
-0.127592898
-0.131175861
-0.13525424
-0.149602641
-0.170754387
-0.188557884
-0.200873684
-0.202260438
-0.199504077
-0.192880962
-0.180104107
-0.155969053
-0.135778289
-0.124667479
-0.118974327
-0.115778923
-0.114705967
-0.124023235
-0.146009015
-0.162506955
-0.175550902
-0.184931642
-0.178593517
-0.16378742
-0.160959028
-0.154405967
-0.134783437
-0.115565496
-0.105573551
-0.108664663
-0.116634782
-0.123344716
-0.130029678
-0.140716716
-0.152655412
-0.161669365
-0.155357755
-0.148112369
-0.141957393
-0.136257838
-0.133369303
-0.136311541
-0.135539325
-0.130859158
-0.130505383
-0.133352301
-0.136208431
-0.134121475
-0.124621735
-0.118847326
-0.113522757
-0.102796722
-0.091977394
-0.087226926
-0.083285926
-0.080291662
-0.083732233
-0.091548009
-0.095358187
-0.094761951
-0.092646799
-0.091434799
-0.088211311
-0.081706905
-0.07613601
-0.07292784
-0.074409332
-0.073510753
-0.073559802
-0.088210599
-0.102524056
-0.10418245
-0.109790961
-0.121199209
-0.121770731
-0.120539272
-0.121215223
-0.123038384
-0.122507273
-0.116042938
-0.112660626
-0.12472219
-0.130825709
-0.132859903
-0.144215654
-0.153112826
-0.153974985
-0.152773141
-0.152264787
-0.142075473
-0.125602421
-0.102756738
-0.092594607
-0.094911491
-0.094881727
-0.088817208
-0.088094865
-0.105268427
-0.127342459
-0.127153831
-0.124784277
-0.140921915
-0.144100641
-0.124771739
-0.11219641
-0.110184169
-0.099732525
-0.081642031
-0.072183869
-0.07388444
-0.081465725
-0.081947296
-0.085882553
-0.096675222
-0.103907539
-0.098611789
-0.095431413
-0.096643336
-0.090043791
-0.077729084
-0.065824185
-0.059221441
-0.053387241
-0.046277514
-0.046377427
-0.048852361
-0.046772405
-0.040356646
-0.028179814
-0.019292983
-0.017229947
-0.012896956
-0.012370001
-0.008644909
-0.003396459
-0.0048013
-0.010465874
-0.018477883
-0.028572998
-0.03138333
-0.036716138
-0.048804201
-0.052474736
-0.045200548
-0.03402158
-0.022352012
-0.016711793
-0.012436941
-0.014427034
-0.02298014
-0.033747006
-0.032811534
-0.035878774
-0.050530226
-0.057493644
-0.057873109
-0.058295071
-0.057944813
-0.057491328
-0.047921673
-0.034323715
-0.030665075
-0.024614448
-0.016440063
-0.017001564
-0.019830425
-0.024274777
-0.025671524
-0.026504436
-0.02951225
-0.031724182
-0.027418356
-0.027017273
-0.030949205
-0.028512034
-0.029774814
-0.040542662
-0.045394798
-0.040787374
-0.040196466
-0.045266101
-0.054923924
-0.057433816
-0.052368912
-0.046506954
-0.044668489
-0.050532815
-0.058473335
-0.064451365
-0.073995807
-0.080277775
-0.087268288
-0.100948029
-0.108525367
-0.105615245
-0.101338349
-0.102315838
-0.102556754
-0.100258332
-0.093558869
-0.092294286
-0.095810331
-0.098872102
-0.103693175
-0.115081944
-0.121678038
-0.125232032
-0.125871354
-0.114296731
-0.108866511
-0.100548383
-0.085744782
-0.077024321
-0.078811369
-0.081095448
-0.080219191
-0.081788834
-0.099727342
-0.119462207
-0.129213198
-0.138325385
-0.151583515
-0.158447155
-0.158161283
-0.155721001
-0.146697138
-0.138955969
-0.137326075
-0.135274626
-0.146652585
-0.159554177
-0.163313588
-0.171635708
-0.191833066
-0.206122559
-0.212926564
-0.215124806
-0.215215163
-0.214360561
-0.199321292
-0.179292886
-0.16268524
-0.146886323
-0.133052568
-0.126958987
-0.12392752
-0.121835648
-0.125192266
-0.125257271
-0.129176882
-0.134108657
-0.137317306
-0.140232422
-0.142469544
-0.146823951
-0.154250566
-0.150842819
-0.141818794
-0.138516323
-0.131391835
-0.125013123
-0.127035041
-0.124150263
-0.120013731
-0.120147933
-0.120844151
-0.135080182
-0.147475872
-0.150303394
-0.155559975
-0.167098505
-0.177798658
-0.186750734
-0.185418923
-0.173751766
-0.161215368
-0.149738347
-0.136573885
-0.128100513
-0.123595841
-0.120023773
-0.11587421
-0.110085022
-0.117060795
-0.124784578
-0.123001234
-0.124437518
-0.133017495
-0.135033631
-0.138243416
-0.136876729
-0.1235571
-0.113156827
-0.112618108
-0.106777578
-0.100228866
-0.097247924
-0.099791156
-0.105560139
-0.107112538
-0.104989802
-0.110830143
-0.11644059
-0.121813106
-0.12508419
-0.130451702
-0.134073408
-0.130976458
-0.126004522
-0.132820066
-0.139965504
-0.137971674
-0.134489136
-0.12841009
-0.124948509
-0.126653593
-0.125345599
-0.11598049
-0.108466913
-0.110471809
-0.124256456
-0.135581214
-0.143705127
-0.149487956
-0.15958094
-0.165673054
-0.169745985
-0.172286655
-0.168412216
-0.161878073
-0.15596194
-0.144241617
-0.130306221
-0.123455334
-0.124444681
-0.131329542
-0.139439054
-0.151489601
-0.162818192
-0.167692753
-0.173640356
-0.178729935
-0.176754053
-0.169273349
-0.161513766
-0.155135307
-0.150916284
-0.142413756
-0.135665759
-0.146992987
-0.157938352
-0.161356029
-0.18163259
-0.198997197
-0.19886072
-0.199118296
-0.197357296
-0.191931355
-0.188887305
-0.182760357
-0.170278115
-0.163031125
-0.155173353
-0.149209396
-0.152907743
-0.160354647
-0.175136006
-0.188610453
-0.194220177
-0.198779927
-0.197690131
-0.18803574
-0.182554981
-0.178487251
-0.168331914
-0.162565615
-0.164372071
-0.167434218
-0.171825213
-0.173015052
-0.181987394
-0.198440882
-0.208034626
-0.209631068
-0.211491941
-0.218393749
-0.218645521
-0.210010345
-0.194549623
-0.181422041
-0.17667561
-0.172070194
-0.172960211
-0.174254576
-0.175456168
-0.183768864
-0.193249202
-0.19997357
-0.202191352
-0.193439154
-0.184599865
-0.181900953
-0.184857023
-0.180170387
-0.173608964
-0.168882643
-0.159537418
-0.149881959
-0.147954869
-0.153534014
-0.157183067
-0.156325691
-0.158334932
-0.16262462
-0.167730456
-0.16837085
-0.158480691
-0.149214886
-0.148922207
-0.150093417
-0.151290633
-0.153067206
-0.155888665
-0.162065539
-0.166707678
-0.172707206
-0.180753505
-0.18037908
-0.182030336
-0.193153059
-0.201279425
-0.203102468
-0.204525284
-0.194676061
-0.177885535
-0.170630013
-0.16344933
-0.155853925
-0.149237556
-0.136811497
-0.12657232
-0.12430921
-0.117649308
-0.109132296
-0.104299725
-0.104781708
-0.106364138
-0.106023491
-0.107922842
-0.109370542
-0.107750582
-0.106439355
-0.111726161
-0.114753852
-0.11649162
-0.121745109
-0.124201143
-0.131497144
-0.142300277
-0.145379534
-0.143655739
-0.144219382
-0.142313172
-0.136283633
-0.131512489
-0.126342428
-0.127012492
-0.131615668
-0.134086039
-0.137216217
-0.139699443
-0.14018596
-0.145341175
-0.152894018
-0.155667425
-0.157588011
-0.162677338
-0.167031401
-0.165796919
-0.160152279
-0.158297843
-0.164455719
-0.163874427
-0.163830595
-0.166619091
-0.172525348
-0.175778665
-0.177491963
-0.180599924
-0.18981198
-0.202597343
-0.212215647
-0.222798695
-0.235477834
-0.235539682
-0.226583169
-0.219645601
-0.214266701
-0.202467816
-0.18663781
-0.176335226
-0.171034488
-0.162858456
-0.16234702
-0.172309358
-0.178795574
-0.187203284
-0.198509763
-0.204595313
-0.210603557
-0.208273895
-0.189182948
-0.169846047
-0.16065427
-0.151653023
-0.144198684
-0.132554329
-0.124498851
-0.12502279
-0.129168648
-0.14004609
-0.158018483
-0.174023438
-0.181963376
-0.194088185
-0.20229405
-0.207280204
-0.207535422
-0.20216222
-0.195581457
-0.186185818
-0.177021657
-0.17257228
-0.169692805
-0.160711968
-0.154677003
-0.152682678
-0.156202815
-0.161337807
-0.15390688
-0.142346563
-0.144420861
-0.150794521
-0.156558439
-0.162816629
-0.162441367
-0.167076156
-0.167418945
-0.153759339
-0.134685175
-0.104828261
-0.051497039
0.025948054
0.119082076
0.221807654
0.320115719
0.415102165
0.503067313
0.563494361
0.601710091
0.634077066
0.67164489
0.722285518
0.774436343
0.825656018
0.899245067
1.002185699
1.135610177
1.282920841
1.41257197
1.532403896
1.645315374
1.720990991
1.737380362
1.715660377
1.665495898
1.573534221
1.446203044
1.303006633
1.17860735
1.086022385
1.015249934
0.954567244
0.909627282
0.875341694
0.846400091
0.809164252
0.748610552
0.658986547
0.542899238
0.40865374
0.267793285
0.112930998
-0.048914376
-0.185184099
-0.268522455
-0.301101573
-0.29031216
-0.25672007
-0.202319015
-0.134231089
-0.07609774
-0.031449129
0.000667227
0.009573874
-0.002763982
-0.031098634
-0.069799388
-0.111108285
-0.151515768
-0.182011423
-0.195000181
-0.19174504
-0.171288812
-0.13590213
-0.106185584
-0.092006813
-0.081470532
-0.064100125
-0.049359259
-0.061572167
-0.097225844
-0.127570414
-0.138387117
-0.146773632
-0.159805515
-0.170966378
-0.174290001
-0.160214136
-0.136197564
-0.117189812
-0.101061229
-0.095098213
-0.092646879
-0.085954063
-0.088214827
-0.101798417
-0.11159636
-0.119421209
-0.122383516
-0.126186421
-0.132297923
-0.125985749
-0.112223617
-0.101496828
-0.081546797
-0.061097929
-0.051606817
-0.047065273
-0.047877556
-0.053820608
-0.056085885
-0.062393178
-0.077160916
-0.088713221
-0.100501235
-0.100314399
-0.089456928
-0.085866018
-0.079152316
-0.062550329
-0.039776967
-0.019809304
-0.008606436
-0.004812398
-0.006484942
-0.010896121
-0.021443759
-0.033698013
-0.054586211
-0.081695168
-0.10364762
-0.119492818
-0.124044381
-0.112103554
-0.100522933
-0.090092131
-0.072258317
-0.054725257
-0.044998455
-0.03995628
-0.045524647
-0.0525158
-0.060662736
-0.073845132
-0.094466933
-0.113917052
-0.124028581
-0.12045188
-0.10987314
-0.100039462
-0.075588532
-0.047718312
-0.029762477
-0.018754586
-0.017064786
-0.024177105
-0.031646374
-0.039237396
-0.047212662
-0.04770594
-0.05210342
-0.054354644
-0.050152023
-0.042946618
-0.034802882
-0.025128877
-0.019343907
-0.016557425
-0.021328957
-0.027559815
-0.025537716
-0.029121492
-0.038022328
-0.037116946
-0.030721427
-0.026763329
-0.019812486
-0.011962373
-0.006587315
-0.015028863
-0.03428112
-0.046746024
-0.05011518
-0.060407765
-0.074160092
-0.081728904
-0.085644702
-0.083939082
-0.080374009
-0.072520655
-0.058666707
-0.047567572
-0.039090688
-0.030826074
-0.027744973
-0.026979908
-0.033775206
-0.040622026
-0.036553338
-0.028540312
-0.02390938
-0.016693635
-0.004844622
0.000741425
0.012391006
0.03498251
0.056371485
0.068825851
0.070382124
0.063049145
0.058816583
0.05246515
0.047215942
0.048289264
0.045461887
0.047712117
0.066024214
0.080391311
0.091015683
0.103665328
0.115114488
0.118579335
0.127061812
0.130534034
0.124928613
0.105939823
0.087678555
0.08325272
0.078358431
0.078963319
0.088142905
0.090098496
0.090347514
0.103042429
0.118349536
0.13180875
0.134602061
0.125679544
0.122723072
0.125962343
0.122888059
0.118927028
0.113149458
0.100069109
0.105574731
0.119001383
0.120319536
0.113394845
0.108257609
0.107320782
0.11249885
0.112203603
0.101221376
0.088503285
0.077919398
0.077035347
0.08396411
0.081327972
0.078340036
0.077986979
0.076271192
0.071456363
0.069259121
0.063940925
0.058276445
0.05140236
0.04357766
0.044907138
0.044089086
0.041244156
0.046865557
0.052904847
0.054978059
0.058650254
0.062738613
0.061569014
0.053129821
0.039087784
0.030660009
0.02236672
0.011715502
0.007883143
0.005462713
-0.000669353
-0.004336132
0.000105552
0.008046647
0.014965252
0.012752976
0.006959123
0.002899886
-0.00639267
-0.024373843
-0.030301837
-0.029601732
-0.027202999
-0.020780092
-0.011844574
-0.000667002
0.008958763
0.018063933
0.022897596
0.02628593
0.029885606
0.027279445
0.013893058
-0.002253859
-0.021915616
-0.046038694
-0.060150898
-0.052647823
-0.038922495
-0.031313637
-0.021881941
-0.016055357
-0.016207927
-0.01824778
-0.024286994
-0.034449923
-0.049850878
-0.069741726
-0.081800672
-0.089510492
-0.103561454
-0.113212817
-0.111556635
-0.095646091
-0.068473981
-0.042811014
-0.016934161
0.013710377
0.0358586
0.043745077
0.051342946
0.055499118
0.047951268
0.029228383
0.009450056
-0.00994958
-0.033539887
-0.055216273
-0.055488999
-0.042702507
-0.034155437
-0.030100806
-0.019618425
0.000633156
0.020761309
0.025040853
0.022320036
0.025371861
0.016133115
-0.013215559
-0.043355119
-0.069118481
-0.093934786
-0.116367967
-0.136668683
-0.13424932
-0.10499741
-0.076364003
-0.05319782
-0.021338238
0.009976851
0.030796341
0.042120833
0.045431289
0.031984061
0.002812126
-0.029577753
-0.052768337
-0.080164015
-0.104767032
-0.112861944
-0.103485843
-0.078598096
-0.052916262
-0.032444882
-0.001779804
0.028687939
0.038525939
0.032836912
0.017555735
-0.009583153
-0.035396978
-0.053854745
-0.069811441
-0.08573871
-0.097318024
-0.098791505
-0.092014152
-0.078209557
-0.058487628
-0.032226366
-0.014441901
-0.004268017
-0.000639418
-0.002228086
-0.006628987
-0.01974109
-0.046252564
-0.06412249
-0.067958195
-0.074215399
-0.085191032
-0.086826168
-0.081378483
-0.08005085
-0.080669219
-0.078487856
-0.070166807
-0.068923144
-0.068813981
-0.065075758
-0.057428721
-0.043261815
-0.032640345
-0.026120824
-0.014405063
-0.004907677
-0.010337812
-0.021400082
-0.031699484
-0.044893773
-0.058082851
-0.071369582
-0.081482505
-0.073328457
-0.057348474
-0.033583621
-0.004413165
0.014005326
0.023499457
0.022705854
0.015789861
-9.16E-05
-0.022692768
-0.064987166
-0.104841606
-0.12494023
-0.135788222
-0.137601409
-0.121903128
-0.086701021
-0.041194849
-0.004056974
0.022587936
0.046295323
0.056330236
0.047394224
0.024904844
-0.013232695
-0.063324842
-0.10393151
-0.129054509
-0.142246929
-0.147431882
-0.133274418
-0.098036574
-0.056945397
-0.029197787
-0.007795577
0.020564369
0.029333068
0.011527759
-0.022347106
-0.058850753
-0.090511452
-0.120901533
-0.141667553
-0.142314748
-0.132598402
-0.121456916
-0.096515048
-0.067271837
-0.046148704
-0.036597036
-0.028446937
-0.021623979
-0.024280742
-0.037301596
-0.048061221
-0.05326593
-0.057692472
-0.051664358
-0.032164982
-0.009567246
0.003956419
0.010209663
0.013758631
0.01555127
0.003227317
-0.019956585
-0.037578423
-0.052787877
-0.065173451
-0.069572286
-0.061643108
-0.037069034
-0.013332507
0.005905994
0.021709367
0.029867272
0.017797165
-0.004845778
-0.032983906
-0.069408349
-0.106502133
-0.135263331
-0.149433992
-0.144516256
-0.128475928
-0.09999255
-0.048201925
0.006024833
0.048131982
0.076062109
0.091348775
0.092914334
0.080425959
0.048148141
0.002326058
-0.040777832
-0.078008701
-0.103394417
-0.110974449
-0.100238497
-0.077108876
-0.054488891
-0.029480061
0.00257127
0.03201316
0.05464086
0.061136155
0.054133731
0.042930279
0.026919727
0.005884784
-0.018707246
-0.03926961
-0.047427034
-0.040073352
-0.026176548
-0.012402598
0.004339306
0.016321238
0.017300167
0.022647484
0.029297914
0.036556017
0.042831007
0.042383704
0.040160888
0.039764874
0.032567127
0.019933984
0.006500215
-0.007589694
-0.014547971
-0.020968776
-0.036024814
-0.048804572
-0.049721318
-0.045901872
-0.033460867
-0.011586299
0.007599234
0.02238826
0.027987325
0.028066386
0.031243569
0.026398525
0.00874002
-0.003396681
-0.017989888
-0.039924216
-0.05661584
-0.063539642
-0.056545031
-0.046889488
-0.03997744
-0.030854774
-0.014562565
-0.008485809
-0.016836651
-0.028385376
-0.03550127
-0.040499918
-0.049227292
-0.055758449
-0.055061288
-0.051480075
-0.047929064
-0.034746532
-0.012231531
0.013045457
0.029015901
0.030806827
0.022203612
0.009776041
-0.010369524
-0.040170949
-0.064411946
-0.073583252
-0.076625846
-0.07339934
-0.048772493
-0.013309052
0.01239474
0.027591998
0.041310538
0.041134769
0.024684775
-0.001306072
-0.033331954
-0.060805305
-0.083956929
-0.098762181
-0.098704955
-0.094225505
-0.088764501
-0.070400407
-0.039162318
-0.012167906
0.003228316
0.004095244
-0.001744335
-0.007778665
-0.018246106
-0.033844741
-0.045548959
-0.056345233
-0.060716606
-0.054760839
-0.048909317
-0.040304923
-0.023977288
-0.010005069
0.002134926
0.010866429
0.007367775
0.013985711
0.047313553
0.098120276
0.158362172
0.232505448
0.329335005
0.443330807
0.552576636
0.654050344
0.749054295
0.819499632
0.858769851
0.902958147
0.953387604
0.992462301
1.028033674
1.081572579
1.169490832
1.293943965
1.438369238
1.586882588
1.723498714
1.836980075
1.931993954
1.993187287
1.997791755
1.946447892
1.841074072
1.693779337
1.529996192
1.379157143
1.264328707
1.18923103
1.127006452
1.083967591
1.059378934
1.029138089
0.990058596
0.933346143
0.843824607
0.72951419
0.595282381
0.437457466
0.263482471
0.091859894
-0.055237165
-0.15625644
-0.206053186
-0.201862348
-0.149298709
-0.078405805
-0.012945378
0.050748197
0.103953475
0.123395298
0.114407902
0.084239767
0.039472825
-0.015310433
-0.068346742
-0.111654261
-0.137778904
-0.145018384
-0.122923499
-0.078014771
-0.021797229
0.033719859
0.071710183
0.094110862
0.110815298
0.108280043
0.074462353
0.025130137
-0.029302331
-0.07518103
-0.099996645
-0.106499339
-0.098357254
-0.07426373
-0.047501955
-0.015072342
0.023439908
0.050043373
0.059355581
0.057286438
0.039290068
0.012166888
-0.018522892
-0.051310093
-0.080770592
-0.112415329
-0.134372303
-0.12476254
-0.091730844
-0.05615233
-0.022086882
0.005912087
0.028514928
0.049246965
0.056946161
0.049995326
0.040316196
0.025148771
-0.000332997
-0.036501746
-0.075781548
-0.100110985
-0.114311654
-0.117326641
-0.09931185
-0.06958
-0.041411501
-0.006757721
0.024129345
0.042101019
0.055506135
0.066531431
0.073447139
0.071724055
0.050000559
0.020894766
-0.006323169
-0.031162898
-0.055396031
-0.069522489
-0.069151697
-0.053236733
-0.032117834
-0.008358797
0.020608187
0.046981905
0.061162494
0.064304559
0.061763972
0.051363598
0.032430873
0.010596811
-0.015614413
-0.042340612
-0.067991667
-0.078814595
-0.072320661
-0.059504566
-0.046820877
-0.024923901
0.011782918
0.047710465
0.061664772
0.05734848
0.055701717
0.058030178
0.04490556
0.020862275
-0.003052047
-0.02279218
-0.039808886
-0.053439533
-0.054135558
-0.042496648
-0.0341152
-0.024266128
-0.007500991
0.004781859
0.014719362
0.020258252
0.023283263
0.023586438
0.008691491
-0.004430356
-0.00370151
-0.00527873
-0.01283964
-0.004773008
0.00875184
0.022841191
0.041044153
0.063600539
0.088728712
0.108908698
0.106118463
0.091989468
0.088860118
0.087720647
0.077058388
0.061626352
0.054168932
0.051144961
0.046489494
0.040451173
0.050532196
0.066543793
0.08177329
0.101241578
0.119014595
0.124521779
0.124830431
0.11482884
0.100282931
0.092749852
0.088354802
0.089460899
0.09528208
0.102501894
0.107963994
0.110491573
0.122873828
0.149030298
0.181333129
0.206038224
0.218754362
0.213869112
0.200854308
0.193392007
0.172291693
0.140205947
0.120188557
0.11216916
0.103436236
0.101221636
0.099464181
0.104799322
0.116781778
0.139305564
0.166148857
0.184546761
0.189688103
0.188044661
0.175470772
0.156052853
0.136734411
0.12078393
0.107202767
0.105181958
0.110708323
0.122392802
0.143552635
0.163531573
0.177197732
0.192525472
0.203152168
0.207805887
0.201524885
0.179629625
0.154455132
0.131896831
0.111857945
0.102704319
0.097829959
0.094414197
0.105413753
0.121787401
0.135906369
0.152068644
0.159016634
0.154358622
0.144814716
0.130243294
0.119447237
0.109801988
0.089781259
0.076474695
0.079191497
0.086225376
0.095823169
0.107358756
0.115673663
0.124513914
0.133975279
0.134869319
0.127940081
0.115892236
0.095229378
0.083938637
0.077087218
0.071412317
0.065985319
0.066014686
0.072823098
0.078999276
0.080690535
0.08397527
0.092240421
0.096489905
0.090525511
0.073968317
0.051120784
0.042700787
0.041502875
0.036054457
0.030333373
0.029599091
0.030365829
0.036517392
0.045536124
0.049797543
0.048871788
0.04377448
0.048122313
0.052169397
0.043724684
0.026973712
0.012244731
0.004767273
0.001469031
-0.004154157
-0.007077721
0.004300942
0.015281123
0.017015551
0.0186697
0.028551771
0.03419174
0.039361906
0.049045717
0.04837301
0.039545623
0.033776614
0.032259529
0.028173312
0.018716416
0.011153712
0.009854387
0.003299923
0.002048214
0.00565157
0.007539897
0.007892466
0.009529164
0.017852761
0.032866676
0.044278974
0.050685418
0.053805978
0.055734317
0.054151983
0.04246061
0.024796783
0.012913851
0.000939405
-0.016958113
-0.026940087
-0.019840848
-0.005418769
0.015536572
0.034270008
0.051298272
0.073787327
0.091010671
0.095812385
0.091994398
0.080557395
0.065747831
0.04889572
0.027063897
0.002562841
-0.014590022
-0.02417598
-0.018159006
-0.004880367
0.005972693
0.024622889
0.054643865
0.073514685
0.081196228
0.080633198
0.073097204
0.063312452
0.045341876
0.011251632
-0.016390844
-0.030101978
-0.042053112
-0.047532498
-0.03722152
-0.021239613
-0.00395105
0.025433385
0.063392705
0.086680026
0.084857279
0.076691453
0.072347109
0.059344299
0.033290535
0.002433208
-0.021891222
-0.032818067
-0.035430934
-0.032074264
-0.024450331
-0.009485781
0.006008193
0.024823099
0.041904216
0.048871373
0.045420889
0.037540728
0.029502958
0.01763583
-0.005084564
-0.026552294
-0.034069809
-0.036813689
-0.037147834
-0.028730399
-0.011396421
0.014163211
0.033870623
0.041796329
0.050668331
0.052266789
0.034635962
0.013076861
-0.008077917
-0.027867943
-0.048217133
-0.062465495
-0.067828353
-0.066703742
-0.061775176
-0.039892634
-0.008753075
0.010563593
0.020122425
0.028633983
0.032841585
0.027729498
0.010517762
-0.011553616
-0.027612099
-0.039643627
-0.051002139
-0.055850511
-0.052458811
-0.039311318
-0.02500725
-0.01397561
0.001944156
0.019982229
0.029897017
0.034335629
0.031038012
0.014854415
-0.002421861
-0.018373502
-0.040372577
-0.062016858
-0.073516094
-0.071966034
-0.062468794
-0.054085023
-0.043631626
-0.024363594
-0.006595974
0.005670533
0.00706006
0.00102071
-0.001115135
-0.006213448
-0.02754532
-0.045080247
-0.049816444
-0.055095048
-0.054849994
-0.044757296
-0.030264485
-0.015499942
-0.004080052
0.008153254
0.027422809
0.037289865
0.035870455
0.035963315
0.034071979
0.021319396
0.006269194
-0.013318886
-0.028762419
-0.034717496
-0.038388352
-0.035653446
-0.03008816
-0.027879473
-0.027644256
-0.025177759
-0.018170243
-0.015935654
-0.022195607
-0.027954428
-0.031487588
-0.043448232
-0.063077435
-0.075486276
-0.082964895
-0.088267745
-0.084826648
-0.073854027
-0.051316312
-0.028779277
-0.020149207
-0.013352598
-8.80E-06
0.004847431
-5.57E-05
-0.011180339
-0.023273898
-0.02858922
-0.035192301
-0.048302281
-0.05760273
-0.066467768
-0.068062011
-0.055296451
-0.043649139
-0.034884799
-0.022726447
-0.014540967
-0.011097715
-0.014444872
-0.028925371
-0.038327009
-0.038135358
-0.041838241
-0.048220972
-0.046594097
-0.038909526
-0.029743928
-0.025155375
-0.021444977
-0.008874374
-0.001398545
-0.00146963
-0.000952149
-0.003166293
-0.013048783
-0.018395851
-0.023135426
-0.022569381
-0.016533023
-0.014436717
-0.010179841
-0.000954931
0.005016102
0.005756531
-0.000240046
-0.008884293
-0.012494757
-0.015932189
-0.025837742
-0.027925076
-0.026263625
-0.029490952
-0.025906203
-0.018421516
-0.011378654
-0.006267589
-0.003406007
-0.005648588
-0.006190159
-0.01650802
-0.031459637
-0.042518545
-0.049100792
-0.053913231
-0.056248273
-0.051159142
-0.042473618
-0.039638035
-0.039419835
-0.032528519
-0.029234501
-0.034068467
-0.037669358
-0.049819493
-0.061666523
-0.066091942
-0.068153126
-0.069507623
-0.060728994
-0.04844322
-0.03525012
-0.017438229
-0.001545127
0.008150767
0.009104006
0.006842637
0.002101382
-0.013285749
-0.039717779
-0.057321707
-0.065512865
-0.074508044
-0.070686322
-0.054721998
-0.042459759
-0.035554796
-0.026949328
-0.014291515
-0.005415644
-0.016990661
-0.032409771
-0.040943708
-0.049124951
-0.067281013
-0.087102797
-0.095125779
-0.085019767
-0.075623769
-0.072717663
-0.062580362
-0.054432416
-0.055888789
-0.060548251
-0.06781852
-0.077026085
-0.088796677
-0.098630107
-0.095545169
-0.084647803
-0.083484582
-0.078083603
-0.052648599
-0.036947161
-0.031504644
-0.026766203
-0.026408584
-0.030964765
-0.04487019
-0.058958411
-0.052341854
-0.025528578
0.01143376
0.072016357
0.169675338
0.287863342
0.405625576
0.515706686
0.628990216
0.7280169
0.787297759
0.818161091
0.849946842
0.880475513
0.910851478
0.938787844
0.984737319
1.064161444
1.174258319
1.313396807
1.4763849
1.630552445
1.75748034
1.871087151
1.955712577
1.982829689
1.958076758
1.886415192
1.77537231
1.633489208
1.47623558
1.336749396
1.247792091
1.187273383
1.129600449
1.085961737
1.060492352
1.033114809
0.983733447
0.909403032
0.812101749
0.685813199
0.538746943
0.374679429
0.200549296
0.033566054
-0.108832483
-0.209823046
-0.247535278
-0.227678672
-0.179381527
-0.123303972
-0.066209148
-0.00726108
0.043648648
0.080264296
0.101807354
0.103186313
0.077580982
0.035515168
-0.005387669
-0.042730141
-0.082515912
-0.109986285
-0.121005285
-0.114969022
-0.093301075
-0.073663124
-0.057048143
-0.033927496
-0.014595469
-0.005803085
-0.004709529
-0.019117258
-0.040907882
-0.056568342
-0.071694088
-0.081375961
-0.093413942
-0.106344678
-0.108310928
-0.108831326
-0.106542747
-0.092983652
-0.081467634
-0.078067616
-0.069700201
-0.060273853
-0.051849587
-0.038761643
-0.027657697
-0.020440199
-0.012116699
-0.009591311
-0.012445849
-0.016764107
-0.025044927
-0.027231158
-0.037856422
-0.055285503
-0.065002959
-0.065892864
-0.063453029
-0.055899449
-0.050138482
-0.039610711
-0.029036034
-0.023108931
-0.017202234
-0.017135227
-0.026048336
-0.034405034
-0.034116436
-0.03676059
-0.042851358
-0.056104172
-0.073649066
-0.072154094
-0.060841557
-0.052401186
-0.04382413
-0.035195271
-0.033486836
-0.028392707
-0.028231702
-0.026932084
-0.027092338
-0.027098459
-0.028268491
-0.028992415
-0.033839733
-0.036616733
-0.036367938
-0.037328697
-0.033845573
-0.034286135
-0.032959471
-0.029063534
-0.029667172
-0.033725411
-0.030118659
-0.032701774
-0.043348148
-0.046977231
-0.04355986
-0.053102841
-0.065620445
-0.068104143
-0.062502235
-0.059717832
-0.066628035
-0.073120433
-0.069137286
-0.066714374
-0.066001605
-0.065256207
-0.063805796
-0.062986396
-0.059067573
-0.056181441
-0.054273089
-0.05708653
-0.060193202
-0.057060774
-0.053150625
-0.05502509
-0.049442057
-0.044415958
-0.034230241
-0.024396171
-0.019564008
-0.019402996
-0.010473755
-0.004119007
-0.00339539
-6.10E-05
0.003378135
0.000571403
-0.006803258
-0.010170901
-0.005168535
-0.004709328
-0.002989322
0.013563901
0.023388791
0.018912135
0.01666949
0.021397927
0.02608159
0.027941155
0.026370743
0.021837448
0.023766804
0.028440499
0.02592968
0.02607905
0.032545379
0.042881622
0.045647375
0.040520214
0.03838199
0.038359547
0.034809385
0.030248347
0.033244635
0.040292662
0.047699324
0.050507208
0.054472616
0.062104443
0.067756776
0.074756231
0.085537322
0.093757149
0.097365008
0.093612136
0.091999663
0.099176163
0.101806951
0.097443196
0.105418622
0.116795149
0.114367798
0.113725863
0.121354915
0.124755355
0.12754994
0.126555849
0.124805576
0.126513288
0.124996501
0.122573703
0.118464603
0.114719265
0.114195603
0.105593
0.099535799
0.098687361
0.095866526
0.089135782
0.085835338
0.081548616
0.0720003
0.068904479
0.068793838
0.068868109
0.072898942
0.074218763
0.083804733
0.095448691
0.094984394
0.093528609
0.092686314
0.076674155
0.06033028
0.05400016
0.044313034
0.026886983
0.012017442
0.010410372
0.020015542
0.029998002
0.032860021
0.041696308
0.04653818
0.048723041
0.050218153
0.036834307
0.018284503
0.01007178
-0.006776694
-0.026081729
-0.035921031
-0.036996864
-0.030890834
-0.01815475
-0.011217478
0.000876941
0.010851732
0.014628257
0.016723002
0.011534083
-0.000538684
-0.016164366
-0.034329819
-0.044720098
-0.049158042
-0.059019097
-0.065541951
-0.064975501
-0.058533968
-0.044168797
-0.028200925
-0.022883583
-0.026978727
-0.02942718
-0.033174272
-0.038182784
-0.059629318
-0.084245596
-0.091739316
-0.095215138
-0.102517459
-0.101432611
-0.091715437
-0.076938666
-0.063196449
-0.056719729
-0.047475948
-0.039826467
-0.043302232
-0.053534561
-0.065348174
-0.081993698
-0.09647232
-0.104890529
-0.114780276
-0.117329294
-0.114485467
-0.114923888
-0.105890642
-0.088958674
-0.079744517
-0.07263824
-0.06759264
-0.069003474
-0.073693499
-0.078993444
-0.081896372
-0.087251169
-0.100957681
-0.11113
-0.113204307
-0.114980675
-0.111601674
-0.102481526
-0.097206307
-0.093427251
-0.097766195
-0.091745756
-0.076749077
-0.071006769
-0.073603727
-0.07649658
-0.078533684
-0.081473
-0.078997404
-0.077730697
-0.080259383
-0.081164645
-0.080065967
-0.075673349
-0.063840334
-0.05860673
-0.056218986
-0.058118531
-0.052893656
-0.036197936
-0.02864603
-0.037704182
-0.037596239
-0.035245244
-0.048265556
-0.057011658
-0.05867889
-0.059440629
-0.067598003
-0.082714169
-0.086706534
-0.07787702
-0.072871602
-0.072573669
-0.061948809
-0.056868668
-0.063946561
-0.066416296
-0.070078312
-0.07432503
-0.078242526
-0.084771123
-0.09289608
-0.090833435
-0.087176554
-0.082975904
-0.074736782
-0.066334851
-0.054864448
-0.045446998
-0.039034048
-0.039240238
-0.048235814
-0.058717262
-0.064960383
-0.069945421
-0.07753126
-0.083647644
-0.089472005
-0.089561122
-0.089916627
-0.087975452
-0.079529419
-0.072589991
-0.0712226
-0.071378807
-0.072753351
-0.073687499
-0.075131328
-0.086667297
-0.097587713
-0.102010846
-0.118015783
-0.130774974
-0.126665589
-0.134345617
-0.154786928
-0.157264197
-0.147304575
-0.136607582
-0.134947415
-0.140070847
-0.139603145
-0.131972547
-0.133361096
-0.13668647
-0.140616123
-0.147611749
-0.14699897
-0.153054368
-0.160099797
-0.152592507
-0.14719947
-0.148845451
-0.141727118
-0.130289623
-0.121167144
-0.111094352
-0.105800606
-0.099902132
-0.097808681
-0.101659767
-0.103301561
-0.105309345
-0.1150531
-0.119796483
-0.12181354
-0.121504086
-0.120488524
-0.124666088
-0.125226632
-0.119614071
-0.112447981
-0.108417174
-0.108163882
-0.104178629
-0.102723722
-0.107797863
-0.117146852
-0.119317017
-0.124740529
-0.133836473
-0.138109366
-0.137228082
-0.137072441
-0.138741164
-0.13952213
-0.140832529
-0.143141308
-0.141888567
-0.134415903
-0.129918568
-0.132425493
-0.136807717
-0.137810867
-0.138103659
-0.138332835
-0.133175208
-0.130379499
-0.131793603
-0.131376028
-0.12719292
-0.118403728
-0.116239079
-0.120974096
-0.111899444
-0.102291557
-0.103383048
-0.108334549
-0.107210091
-0.102959199
-0.103409718
-0.117275387
-0.13618094
-0.132705042
-0.124437885
-0.132046467
-0.144337403
-0.14630544
-0.139156407
-0.128296447
-0.127284711
-0.13175351
-0.129306812
-0.133413598
-0.134315444
-0.132967021
-0.137023589
-0.144881748
-0.151769905
-0.154875018
-0.150484218
-0.153115648
-0.152613354
-0.144186677
-0.135384232
-0.126004804
-0.116959687
-0.112110936
-0.106115424
-0.100304337
-0.100621606
-0.103633833
-0.105610596
-0.105660316
-0.102895862
-0.105598084
-0.102345758
-0.094087027
-0.088139062
-0.083116962
-0.07080705
-0.06001065
-0.056390027
-0.054347218
-0.052959148
-0.054980429
-0.060910926
-0.071111759
-0.074943701
-0.073897876
-0.073691259
-0.071307948
-0.06997968
-0.073112748
-0.080180377
-0.084606885
-0.084671221
-0.082452189
-0.087827305
-0.090524018
-0.086209147
-0.09159282
-0.100519381
-0.095020532
-0.094315065
-0.09975277
-0.102714501
-0.10349248
-0.105181663
-0.113612498
-0.126347354
-0.130748826
-0.130110921
-0.136827742
-0.136562653
-0.129376995
-0.122782856
-0.117698465
-0.115305059
-0.114826309
-0.115270799
-0.120190126
-0.125506588
-0.132454263
-0.148656761
-0.157337927
-0.158633523
-0.162948434
-0.163290456
-0.156511682
-0.146402731
-0.128611327
-0.104390367
-0.091214932
-0.088335785
-0.090352746
-0.094891098
-0.110447397
-0.133440373
-0.153463849
-0.171699192
-0.189412813
-0.198446069
-0.198604801
-0.197873838
-0.185415004
-0.166348882
-0.151362649
-0.134220128
-0.121268924
-0.121039202
-0.121009335
-0.12757918
-0.140249247
-0.151962304
-0.156531783
-0.165065362
-0.176295808
-0.182753614
-0.177752392
-0.172200378
-0.170290531
-0.168148768
-0.16452871
-0.160629692
-0.156084919
-0.153125009
-0.153877994
-0.140730329
-0.12465338
-0.117401729
-0.113514179
-0.106091252
-0.106375502
-0.110211792
-0.115502058
-0.121783559
-0.132046207
-0.145863946
-0.15285412
-0.139408834
-0.117577871
-0.08193781
-0.021267768
0.068126165
0.173539713
0.279473066
0.375635901
0.465198296
0.538070462
0.583971761
0.615071978
0.644053655
0.672543229
0.69997362
0.735050521
0.79107784
0.87643743
0.986504903
1.123217117
1.275398067
1.420817062
1.548819929
1.657265379
1.727435132
1.746581273
1.724829756
1.66026661
1.552174559
1.411537492
1.259061456
1.131049486
1.043497096
0.978739647
0.924887966
0.884151313
0.860991489
0.84090662
0.798533832
0.726706334
0.634111576
0.516270758
0.379682217
0.230119655
0.063223824
-0.100353272
-0.227920538
-0.311493389
-0.344019176
-0.322888888
-0.274673051
-0.217158116
-0.161879675
-0.116429541
-0.076841796
-0.050335181
-0.044612849
-0.056811358
-0.084070178
-0.119583485
-0.154917216
-0.192339309
-0.223924156
-0.236248563
-0.224583322
-0.200583855
-0.180576026
-0.165601892
-0.146423292
-0.13167447
-0.12731205
-0.125442086
-0.130524464
-0.144880908
-0.156378384
-0.164134488
-0.171098649
-0.177399318
-0.17940362
-0.174499666
-0.16466937
-0.159959633
-0.159974869
-0.156502164
-0.15834569
-0.17139769
-0.186920492
-0.192968919
-0.187854315
-0.185545585
-0.189919465
-0.180807412
-0.159831849
-0.152070175
-0.150621095
-0.144167231
-0.139626873
-0.146966975
-0.16221403
-0.173657141
-0.17519746
-0.181768762
-0.19074094
-0.195224094
-0.189213817
-0.179552986
-0.170724254
-0.165522158
-0.155677249
-0.146512112
-0.143699667
-0.138170026
-0.137179082
-0.146517133
-0.152806671
-0.153821043
-0.151753493
-0.151379069
-0.15107704
-0.147712982
-0.141410698
-0.142267959
-0.145081622
-0.145144728
-0.147161599
-0.153300387
-0.159371979
-0.164096158
-0.163396528
-0.165659053
-0.171896469
-0.166780721
-0.14853359
-0.140695938
-0.140821963
-0.138161245
-0.134394504
-0.13847851
-0.150633459
-0.15947716
-0.161280458
-0.169293679
-0.175079468
-0.172786231
-0.162308404
-0.151302653
-0.140057879
-0.125245874
-0.102602683
-0.091603633
-0.095195174
-0.089634286
-0.089464013
-0.104626232
-0.110685797
-0.112118969
-0.117607734
-0.120282226
-0.124865545
-0.126696129
-0.123627951
-0.125833173
-0.129550459
-0.124831504
-0.12233678
-0.126219798
-0.131119854
-0.139260652
-0.14563075
-0.154206078
-0.163167496
-0.164068998
-0.158923591
-0.160191707
-0.156677282
-0.151355218
-0.144167141
-0.132827701
-0.13068026
-0.137629746
-0.137164167
-0.138458223
-0.146536357
-0.147461581
-0.146512468
-0.145314411
-0.143901457
-0.1366995
-0.124437239
-0.112004976
-0.102290356
-0.095023017
-0.085656642
-0.081307963
-0.081760145
-0.084525156
-0.089948823
-0.091335428
-0.092066881
-0.08969484
-0.080991534
-0.074954623
-0.07377112
-0.067753115
-0.061262324
-0.056640703
-0.051160795
-0.050003221
-0.04226136
-0.034966614
-0.034123158
-0.035739692
-0.036847603
-0.037499499
-0.032748121
-0.030611594
-0.037035439
-0.04286358
-0.047829293
-0.050572878
-0.048686695
-0.051781527
-0.056562394
-0.047898527
-0.046871831
-0.049791282
-0.046166655
-0.037642668
-0.03290259
-0.032556923
-0.030036574
-0.023510182
-0.026841755
-0.038598092
-0.040106796
-0.041556687
-0.050124604
-0.0521076
-0.051038144
-0.047762548
-0.038468919
-0.031659456
-0.028071377
-0.023559452
-0.021959611
-0.018956204
-0.01397478
-0.0181178
-0.023153432
-0.031558605
-0.043608522
-0.055497245
-0.06146904
-0.069938761
-0.075581686
-0.076378634
-0.075609834
-0.074799624
-0.077622167
-0.080784693
-0.081908212
-0.086425766
-0.093514999
-0.093075818
-0.096756131
-0.111020461
-0.125248981
-0.132849401
-0.140362107
-0.148540202
-0.151390603
-0.144169143
-0.143330779
-0.148443882
-0.145084027
-0.142726376
-0.147656174
-0.150913705
-0.156284061
-0.167334018
-0.169489848
-0.166142309
-0.170759955
-0.173990065
-0.171728436
-0.16414471
-0.156657803
-0.154865109
-0.154437666
-0.153999934
-0.15601594
-0.15670267
-0.155986884
-0.160513711
-0.173706012
-0.181864112
-0.180288065
-0.178400359
-0.178846844
-0.176557631
-0.174757126
-0.176921758
-0.167693599
-0.154766149
-0.15676347
-0.165134779
-0.162083286
-0.158541283
-0.155194527
-0.1605496
-0.172030008
-0.167081836
-0.157268677
-0.160338503
-0.167251371
-0.17016516
-0.170385008
-0.169289158
-0.171248076
-0.171554115
-0.16237578
-0.155744504
-0.163574203
-0.170706446
-0.166968444
-0.165228565
-0.1684351
-0.173628474
-0.175923796
-0.174468198
-0.175383977
-0.181712628
-0.18737536
-0.185162505
-0.185757797
-0.181795368
-0.178939088
-0.175967619
-0.174845669
-0.169763313
-0.16013087
-0.160525594
-0.165596705
-0.156944856
-0.148998906
-0.151915226
-0.159521995
-0.162323259
-0.15756639
-0.156363981
-0.163849798
-0.165340467
-0.163471942
-0.161283186
-0.154228512
-0.146113068
-0.140960543
-0.133835567
-0.129652648
-0.128007073
-0.12705997
-0.135500245
-0.146592075
-0.149300645
-0.157473976
-0.167047855
-0.172236212
-0.173671706
-0.171470461
-0.170208998
-0.171817832
-0.160411801
-0.147088874
-0.141734868
-0.138869987
-0.140564824
-0.14644003
-0.148747885
-0.158518671
-0.168742906
-0.17255444
-0.174380199
-0.172029664
-0.161709524
-0.158963679
-0.158553178
-0.155301669
-0.146937695
-0.142964539
-0.146581612
-0.154670236
-0.161843209
-0.16654482
-0.168178258
-0.17723278
-0.188384172
-0.19054865
-0.182880911
-0.177719212
-0.178491606
-0.178605463
-0.183345537
-0.190803487
-0.190854535
-0.18518645
-0.181374406
-0.183985147
-0.186687227
-0.180342435
-0.16805718
-0.160180828
-0.157249101
-0.157882384
-0.156658625
-0.149986556
-0.149005722
-0.153535242
-0.160084043
-0.167923383
-0.171210084
-0.172138537
-0.183093261
-0.184772889
-0.174261116
-0.171029649
-0.170870591
-0.168768851
-0.171736398
-0.168637564
-0.164036539
-0.171094559
-0.180535496
-0.188686471
-0.201586778
-0.217146335
-0.223326254
-0.226310392
-0.230638588
-0.231279242
-0.223629664
-0.212445231
-0.208710582
-0.20447567
-0.197685002
-0.192028765
-0.19084006
-0.187053907
-0.191232728
-0.198651648
-0.202427081
-0.209665453
-0.212606448
-0.205737214
-0.200859931
-0.192103864
-0.183882878
-0.1818086
-0.179576466
-0.174845607
-0.16813343
-0.157742066
-0.156727298
-0.163912565
-0.160942461
-0.158363472
-0.166715462
-0.172616401
-0.170825047
-0.161271216
-0.15904993
-0.16838281
-0.168556278
-0.161850293
-0.165472769
-0.170513229
-0.170925033
-0.169539542
-0.170108904
-0.170368228
-0.170103741
-0.170212107
-0.169737567
-0.172877845
-0.162955952
-0.156362042
-0.161475798
-0.166584433
-0.165812971
-0.165081971
-0.168103099
-0.171416003
-0.167461922
-0.161681962
-0.16762243
-0.170027268
-0.164899051
-0.156515035
-0.150392711
-0.146208658
-0.13768359
-0.13045352
-0.129950509
-0.135315715
-0.133362348
-0.138597464
-0.147300849
-0.147648494
-0.144859319
-0.137338737
-0.138792334
-0.143287661
-0.139251123
-0.13139867
-0.122611271
-0.115776746
-0.118626351
-0.116596187
-0.112739657
-0.12070834
-0.134806373
-0.138109987
-0.137631638
-0.14249962
-0.145120603
-0.144295163
-0.136264405
-0.130678
-0.128488015
-0.123786414
-0.11561436
-0.118776833
-0.117695394
-0.111325428
-0.118153003
-0.130272616
-0.136533045
-0.141726784
-0.150791068
-0.158986686
-0.157024667
-0.145119905
-0.137963091
-0.140615873
-0.135346564
-0.123433066
-0.120964399
-0.122671862
-0.127815529
-0.134142745
-0.139923867
-0.154058835
-0.176237822
-0.200131726
-0.211584644
-0.210780801
-0.210362656
-0.205484089
-0.194791713
-0.190337147
-0.185432306
-0.173467282
-0.167715452
-0.167152319
-0.167313247
-0.170210571
-0.178323158
-0.194661984
-0.210904903
-0.217583591
-0.220297306
-0.22192275
-0.217788172
-0.206783445
-0.198386141
-0.19159577
-0.178782718
-0.165472897
-0.159101104
-0.15577342
-0.150079743
-0.145991138
-0.156863523
-0.172551236
-0.17961405
-0.180582979
-0.181237233
-0.183839937
-0.184285261
-0.178124188
-0.170458223
-0.167715984
-0.16535212
-0.162526291
-0.166827844
-0.172106992
-0.178455649
-0.185353269
-0.193959812
-0.197505874
-0.194705481
-0.182105927
-0.172294531
-0.161904665
-0.143399648
-0.132656843
-0.132417395
-0.133700577
-0.132298264
-0.12645974
-0.127849281
-0.145812328
-0.148928345
-0.131770219
-0.107742644
-0.068845539
-0.0042099
0.082715621
0.184392449
0.284825891
0.375519637
0.458599189
0.531910067
0.585887806
0.625025309
0.656825887
0.689217512
0.723500658
0.76099092
0.811581734
0.889478661
0.990338406
1.12198418
1.271773724
1.398583171
1.501258969
1.590301506
1.649494752
1.66119641
1.6260542
1.557008276
1.455561499
1.324427186
1.184775204
1.069371566
0.98493007
0.92496203
0.877326721
0.842565205
0.813964604
0.779172848
0.732087907
0.666697959
0.57055812
0.445653805
0.318508786
0.177528141
0.020699001
-0.129118436
-0.25400989
-0.327622717
-0.341306874
-0.322598411
-0.29098166
-0.235993561
-0.171846209
-0.12282198
-0.082726357
-0.055662784
-0.044326863
-0.056917558
-0.086650034
-0.121749204
-0.161723924
-0.199682336
-0.225454603
-0.235337118
-0.222351418
-0.193005339
-0.164635184
-0.142478989
-0.115670046
-0.08834125
-0.080996202
-0.085241296
-0.092897377
-0.102435591
-0.117623883
-0.138238685
-0.148695292
-0.15347858
-0.163305596
-0.16701184
-0.163210799
-0.159819974
-0.156567882
-0.159592425
-0.166213632
-0.172920248
-0.181559949
-0.189677997
-0.185918371
-0.182390804
-0.182918288
-0.175109229
-0.165239529
-0.158973175
-0.155985901
-0.155577554
-0.148360644
-0.146095195
-0.160707549
-0.174490415
-0.176442153
-0.175673272
-0.173793932
-0.168200532
-0.157201208
-0.143954347
-0.134233696
-0.125069825
-0.116343041
-0.112412169
-0.113855101
-0.110372775
-0.113873585
-0.12271749
-0.135066332
-0.148265766
-0.150179062
-0.148404557
-0.149334171
-0.142044353
-0.131046059
-0.124949324
-0.124114779
-0.125365861
-0.127821315
-0.12888124
-0.136367086
-0.146783582
-0.150645506
-0.154799373
-0.155672258
-0.147396121
-0.132782776
-0.126156099
-0.119077734
-0.110024162
-0.104082316
-0.103726185
-0.111719306
-0.115161606
-0.115669289
-0.126649588
-0.134613704
-0.133464656
-0.131703211
-0.125512855
-0.119709986
-0.10757283
-0.08958635
-0.086155924
-0.087346954
-0.08170027
-0.079156174
-0.090097023
-0.101494276
-0.107125862
-0.108817469
-0.109659072
-0.111155665
-0.11328678
-0.11646921
-0.115437286
-0.100070763
-0.095209039
-0.104490449
-0.10324742
-0.098474374
-0.099868769
-0.102930202
-0.110091347
-0.116849709
-0.113871482
-0.10904713
-0.110490574
-0.112487061
-0.114405917
-0.108601147
-0.099323966
-0.099666859
-0.104550158
-0.100751441
-0.093967991
-0.093895343
-0.097302118
-0.097083356
-0.087280667
-0.076066098
-0.067695526
-0.065444473
-0.065542878
-0.063124836
-0.057204917
-0.059685545
-0.065392014
-0.059124838
-0.051715142
-0.051068408
-0.049185309
-0.04515457
-0.042120189
-0.038232162
-0.041594258
-0.048223354
-0.044032036
-0.034840398
-0.030415436
-0.035529241
-0.038021935
-0.028853435
-0.020130181
-0.012098488
-0.001103959
0.00347544
0.00630841
0.012183799
0.011061545
0.008088745
0.007576219
-0.001060137
0.001619177
0.009990725
0.008295556
0.01059651
0.018774469
0.017563597
0.010616546
0.012583691
0.015187299
0.012273032
0.010826967
0.009955089
0.008831784
0.006632024
0.007466407
0.009337947
0.006134254
0.008659679
0.01070122
0.003112123
-0.001109249
0.003231216
-0.001472771
-0.00867927
-0.008799883
-0.009333704
-0.01200499
-0.00987162
-0.000374403
0.010692364
0.012292804
0.010329179
0.013858056
0.006300237
-0.00940107
-0.021712477
-0.036555832
-0.049467618
-0.056849255
-0.068264513
-0.070727294
-0.063921128
-0.062301834
-0.054055656
-0.040912844
-0.025845874
-0.018706218
-0.018868511
-0.022952541
-0.029680921
-0.046905424
-0.063802558
-0.074205228
-0.085009208
-0.09357645
-0.091055812
-0.084556249
-0.076135445
-0.067602864
-0.061173231
-0.05403695
-0.050931647
-0.059800077
-0.066603418
-0.078328695
-0.09319042
-0.106987459
-0.122544435
-0.133149255
-0.128898422
-0.12587977
-0.124154755
-0.115542908
-0.104251303
-0.090423771
-0.085701372
-0.093883889
-0.10476199
-0.114155187
-0.127148836
-0.138482664
-0.142012084
-0.148148274
-0.15318694
-0.140458069
-0.12226534
-0.111626792
-0.108868984
-0.100157004
-0.090055949
-0.09221321
-0.102226342
-0.109723401
-0.124639282
-0.139631606
-0.150551322
-0.156872262
-0.153992566
-0.138347435
-0.12531148
-0.117912078
-0.104413636
-0.089858669
-0.082659764
-0.086325251
-0.098373186
-0.109448969
-0.116619821
-0.121783091
-0.121102545
-0.124381913
-0.125299039
-0.113453829
-0.10022256
-0.090451632
-0.080057117
-0.075615536
-0.074032288
-0.076357002
-0.086783501
-0.095832764
-0.103678615
-0.118545893
-0.122095928
-0.114717238
-0.106659791
-0.097984502
-0.090338877
-0.08260647
-0.076504431
-0.08121435
-0.092124516
-0.100738252
-0.113768066
-0.123396399
-0.124648848
-0.127802299
-0.131743144
-0.132201237
-0.128811157
-0.118988178
-0.10264468
-0.094805515
-0.092201312
-0.09292278
-0.102205947
-0.111390917
-0.125060834
-0.132330952
-0.136227463
-0.142078331
-0.147837129
-0.140275843
-0.130010413
-0.122357507
-0.11605533
-0.106908175
-0.098428432
-0.093548361
-0.0954577
-0.098595864
-0.102795017
-0.114539556
-0.125284844
-0.125767895
-0.124246827
-0.120623054
-0.120426265
-0.123671545
-0.120624255
-0.115525995
-0.113340772
-0.109573498
-0.109195196
-0.113684949
-0.116173153
-0.122649694
-0.126188471
-0.122138645
-0.124242924
-0.121661339
-0.108901155
-0.105674524
-0.104720707
-0.100635782
-0.095748863
-0.092070981
-0.094324426
-0.095040756
-0.088699615
-0.087871605
-0.093328635
-0.094094377
-0.090423116
-0.09171379
-0.100382616
-0.1097286
-0.110828462
-0.112490701
-0.116284045
-0.119636803
-0.118985233
-0.121935304
-0.120396781
-0.114652944
-0.108342803
-0.10635254
-0.106634652
-0.103991866
-0.105873799
-0.120234701
-0.138489882
-0.141588412
-0.139194644
-0.146946356
-0.149738389
-0.141972151
-0.13071539
-0.129733096
-0.135375941
-0.127342326
-0.119357474
-0.115832223
-0.119570848
-0.125589488
-0.133085943
-0.141571588
-0.158143204
-0.174843311
-0.173038427
-0.165739712
-0.159800923
-0.151952634
-0.142664406
-0.135861355
-0.127551147
-0.118435792
-0.108585712
-0.107240871
-0.110777782
-0.110847369
-0.11765397
-0.133317394
-0.144243769
-0.146430193
-0.141642938
-0.131436007
-0.125010278
-0.1179464
-0.107869938
-0.106119923
-0.108489414
-0.109089697
-0.11136225
-0.12323062
-0.13235477
-0.140429728
-0.143462591
-0.144968769
-0.151047812
-0.150326914
-0.140789811
-0.137533792
-0.136512435
-0.133323204
-0.13008726
-0.130446368
-0.131674106
-0.132871892
-0.130200896
-0.129093077
-0.127390129
-0.123376796
-0.12270064
-0.120197936
-0.116668544
-0.120655675
-0.119286384
-0.118215036
-0.128687878
-0.136717722
-0.135330231
-0.127824114
-0.125981343
-0.123172298
-0.114323059
-0.105743152
-0.106845141
-0.105814883
-0.101306497
-0.10423504
-0.112722018
-0.112217414
-0.109783423
-0.111487701
-0.111826318
-0.106085094
-0.093556167
-0.078553476
-0.064211307
-0.044096096
-0.029703346
-0.030939751
-0.034698716
-0.044622811
-0.064111585
-0.086584251
-0.109953874
-0.125223943
-0.127089496
-0.124419855
-0.123520407
-0.116113198
-0.100032216
-0.078687726
-0.06940282
-0.07275402
-0.073049818
-0.076055561
-0.099024657
-0.125034357
-0.146561963
-0.165187013
-0.173277681
-0.169521079
-0.158187741
-0.143074141
-0.128133038
-0.111865936
-0.093601841
-0.08581092
-0.08859552
-0.098465034
-0.117442661
-0.13648311
-0.148115186
-0.158175502
-0.164479643
-0.165289227
-0.155475292
-0.136341694
-0.120143625
-0.113400895
-0.109149707
-0.109290745
-0.114172262
-0.127498261
-0.146583876
-0.163906785
-0.1788405
-0.195416044
-0.199951363
-0.183414667
-0.159443294
-0.138012107
-0.118819651
-0.10352053
-0.089965733
-0.083611724
-0.090223866
-0.100937471
-0.111663531
-0.123752324
-0.130772332
-0.13323661
-0.13211946
-0.126051244
-0.1131488
-0.096518616
-0.081542181
-0.07410217
-0.078922908
-0.081175354
-0.086439855
-0.105041061
-0.126685643
-0.141262998
-0.148628103
-0.151183754
-0.153118438
-0.13722858
-0.117345195
-0.105475562
-0.100840549
-0.0910214
-0.087417393
-0.094158424
-0.102524743
-0.100817901
-0.079525071
-0.040545303
0.015781932
0.104080125
0.213929005
0.319491942
0.425692538
0.53173676
0.615693774
0.669819726
0.699342426
0.72451732
0.750900158
0.775934139
0.810089298
0.863891122
0.949212623
1.066169654
1.205857363
1.357013812
1.499523011
1.61550685
1.699635447
1.745232644
1.735779497
1.677520694
1.579039002
1.448851935
1.30426737
1.171876372
1.071134479
1.011472622
0.975286626
0.9499963
0.941170661
0.935520878
0.90940353
0.853383443
0.756395127
0.631116429
0.482313408
0.309104102
0.123285708
-0.048962094
-0.186576063
-0.283859046
-0.327082186
-0.313167111
-0.251348603
-0.173906002
-0.105218641
-0.045516568
-0.00174218
0.013095156
0.001792536
-0.027072493
-0.068024932
-0.113233759
-0.162399885
-0.200627949
-0.216938363
-0.216158844
-0.195063027
-0.157771514
-0.12156892
-0.087393134
-0.056301894
-0.044209904
-0.051121928
-0.068979286
-0.095111716
-0.119168924
-0.140318968
-0.164459756
-0.182201153
-0.183434112
-0.175395801
-0.15824604
-0.140268588
-0.122881515
-0.108671111
-0.102649018
-0.109877589
-0.125526328
-0.142330747
-0.158342791
-0.168805737
-0.168966509
-0.164657502
-0.15753294
-0.144919471
-0.121321214
-0.096689164
-0.084609947
-0.076580982
-0.075516964
-0.085581717
-0.103371245
-0.121402616
-0.144803614
-0.159061432
-0.16168172
-0.159632183
-0.148492003
-0.123289182
-0.102069758
-0.079293357
-0.05917905
-0.043129192
-0.033337191
-0.042643694
-0.055653778
-0.063076213
-0.078205221
-0.095442654
-0.106757813
-0.114001823
-0.115028424
-0.111615013
-0.103217823
-0.084625157
-0.069587199
-0.069498133
-0.071188205
-0.06985476
-0.075129263
-0.085248861
-0.10128213
-0.106352562
-0.101810387
-0.107320886
-0.11886055
-0.127635498
-0.132954146
-0.134094368
-0.129203034
-0.12525396
-0.123072553
-0.123416303
-0.120084799
-0.116024851
-0.116397523
-0.11058395
-0.094123261
-0.083594326
-0.082469068
-0.084974334
-0.086999552
-0.086078183
-0.079454337
-0.08422563
-0.085534238
-0.077764682
-0.071702679
-0.066615614
-0.059230949
-0.060610796
-0.06394424
-0.066298576
-0.068381845
-0.070369072
-0.07683319
-0.093800639
-0.106925646
-0.116751442
-0.127006935
-0.133877938
-0.137195301
-0.13049781
-0.124952568
-0.11914463
-0.103775036
-0.091326194
-0.091761616
-0.099321441
-0.104456873
-0.107919299
-0.112988884
-0.117799241
-0.117695024
-0.106552179
-0.096997527
-0.09248406
-0.078206763
-0.056875314
-0.043388173
-0.03047187
-0.020355752
-0.015545018
-0.018735004
-0.025881597
-0.027411936
-0.031532425
-0.046572834
-0.052299339
-0.042136783
-0.03525939
-0.030535705
-0.023342233
-0.011285351
0.004112238
0.01569903
0.019901686
0.020814311
0.017156914
0.007115673
-0.001900017
-0.001534078
0.006260292
0.009033154
0.009751644
0.015827026
0.02824488
0.038769241
0.047179061
0.056491506
0.061131583
0.063019956
0.054567599
0.038583775
0.033119094
0.027275536
0.012018742
0.010024596
0.018583342
0.024572456
0.028496756
0.031583268
0.040910889
0.051551846
0.055703156
0.0587908
0.062535773
0.059977948
0.052459555
0.048574301
0.04509052
0.042857604
0.040704966
0.038342487
0.034271281
0.033713671
0.037571059
0.044417454
0.052534018
0.058985813
0.065736154
0.073787239
0.071329329
0.057876172
0.050363098
0.052187166
0.045176188
0.021484535
0.008426629
0.009271575
0.006031816
-0.001717207
-0.001952084
0.003773637
0.011404354
0.014548805
0.01671197
0.024552803
0.030121356
0.027030741
0.014530102
-0.001537584
-0.011887424
-0.018027623
-0.034534265
-0.046313918
-0.04380358
-0.039068897
-0.036781065
-0.032076518
-0.02632677
-0.019863926
-0.017716514
-0.013408619
-0.006862746
-0.011426021
-0.025014297
-0.028344589
-0.027207982
-0.026726578
-0.024541066
-0.022889531
-0.016560482
-0.005729094
-0.001710059
-0.004678059
-0.008414066
-0.012130762
-0.015414384
-0.018296415
-0.031441644
-0.051414912
-0.064972269
-0.069316837
-0.066266645
-0.063299588
-0.061465805
-0.054185021
-0.051969969
-0.048132093
-0.042529125
-0.043405197
-0.050354712
-0.059415497
-0.070270032
-0.083511599
-0.08991949
-0.09268659
-0.094553836
-0.09782669
-0.087274398
-0.068937848
-0.057890924
-0.057009243
-0.055797204
-0.052310071
-0.055185585
-0.054774281
-0.053334967
-0.053246821
-0.05218567
-0.047220284
-0.036803138
-0.023655088
-0.015569054
-0.0111784
-0.005746311
-0.008030327
-0.013261456
-0.015252678
-0.016622394
-0.020090833
-0.018787787
-0.009503042
0.010181329
0.025916072
0.031775151
0.03758448
0.045330949
0.042573148
0.025770044
-0.003544231
-0.032784003
-0.062540913
-0.09098412
-0.10936231
-0.112514945
-0.110294677
-0.104816643
-0.089481207
-0.071758899
-0.055771806
-0.040745501
-0.031431875
-0.019610469
-0.018762503
-0.032980012
-0.048128413
-0.057232909
-0.070016697
-0.080490246
-0.084481601
-0.078009471
-0.063431515
-0.048343614
-0.025253571
-0.001095233
0.010321742
0.015820859
0.022231192
0.024556507
0.017915372
0.003271697
-0.013984643
-0.024519909
-0.03750453
-0.045940167
-0.037805781
-0.026000875
-0.025105574
-0.028013543
-0.022517801
-0.009936496
-0.004854774
-0.018032633
-0.035492704
-0.044764075
-0.049226153
-0.0534769
-0.063646218
-0.071588359
-0.071913893
-0.066856277
-0.059003049
-0.04994991
-0.050951648
-0.059643881
-0.064894234
-0.073814142
-0.087928844
-0.092470367
-0.092733089
-0.091418998
-0.081902352
-0.070360389
-0.053744405
-0.032597966
-0.013759729
-0.003010921
0.000262349
0.005325956
0.014225173
0.011760642
0.001321358
-0.002389012
-0.006676322
-0.018166478
-0.026043179
-0.026170342
-0.024081118
-0.02884237
-0.027827436
-0.014446268
-0.005887536
-0.008921585
-0.018797834
-0.028249056
-0.044592656
-0.059900302
-0.067195743
-0.07663844
-0.083657489
-0.087014269
-0.086789681
-0.082308752
-0.085027931
-0.094416062
-0.089857981
-0.076600829
-0.070750088
-0.066308477
-0.061239614
-0.059532534
-0.058244133
-0.06650385
-0.073476688
-0.068293673
-0.065969829
-0.06833559
-0.066006615
-0.068409064
-0.072864156
-0.074720365
-0.071507543
-0.062078283
-0.051700465
-0.047072122
-0.04024448
-0.032458391
-0.026919404
-0.023552765
-0.023788004
-0.027420979
-0.035589009
-0.054874082
-0.074523856
-0.082755445
-0.086087897
-0.084640161
-0.081334517
-0.076960814
-0.062081852
-0.0457902
-0.040355795
-0.037826128
-0.040651903
-0.046408463
-0.04566705
-0.04304308
-0.054416125
-0.077284346
-0.09819087
-0.100145966
-0.09196945
-0.086492353
-0.072582797
-0.04799316
-0.025057814
-0.000297039
0.026001777
0.037152481
0.028326149
0.009655057
-0.006826542
-0.0133868
-0.023903331
-0.049215072
-0.06445718
-0.065324673
-0.063227301
-0.06032021
-0.056417872
-0.044817866
-0.027073344
-0.011756546
0.000748975
0.01240079
0.012582315
0.010121418
0.010255294
0.007559698
0.006860824
-0.002856087
-0.016533984
-0.022126119
-0.025676213
-0.032400248
-0.02977002
-0.018592534
-0.013072739
-0.009842535
0.002061322
0.019282697
0.034296875
0.041614843
0.047014823
0.044763535
0.030784617
0.013735133
-0.005036435
-0.027657429
-0.045006347
-0.059056037
-0.065227146
-0.058686859
-0.055533071
-0.058821624
-0.053421606
-0.035715925
-0.027195258
-0.027016666
-0.030608465
-0.039397653
-0.051715528
-0.07090466
-0.093612051
-0.109216705
-0.12031234
-0.130153413
-0.128978081
-0.121144428
-0.106052244
-0.085864718
-0.069084292
-0.0510664
-0.036567658
-0.032418457
-0.02838484
-0.024246007
-0.025069542
-0.030625698
-0.033853322
-0.035279424
-0.032304466
-0.025294242
-0.010460774
0.007439618
0.017523028
0.021215844
0.019614945
0.012687822
-0.001734653
-0.017173717
-0.022879617
-0.019284598
-0.020426214
-0.032238061
-0.035631408
-0.031336172
-0.031524046
-0.035288647
-0.041095581
-0.047330102
-0.061057074
-0.089068346
-0.113233631
-0.119104227
-0.117658423
-0.115036808
-0.097104903
-0.065703981
-0.028505835
0.004535807
0.025060229
0.037349529
0.038353114
0.025475667
0.010948675
-0.004324392
-0.027462113
-0.04574497
-0.043012873
-0.009068424
0.058184382
0.149102982
0.261326277
0.389491437
0.51455676
0.632519912
0.736234586
0.805994334
0.841578712
0.860541837
0.871653296
0.887553542
0.912832832
0.951856727
1.020719842
1.12170015
1.260508313
1.43249241
1.603791322
1.750259487
1.869842978
1.956998583
1.995730886
1.975881765
1.894432809
1.766752015
1.612901741
1.446291776
1.300079517
1.198766839
1.135411381
1.094763956
1.072482284
1.059383139
1.046513772
1.018681467
0.960002439
0.864031469
0.737111012
0.595718608
0.433768672
0.248007112
0.06579236
-0.080342915
-0.181925744
-0.234194487
-0.226901303
-0.171153763
-0.089354519
-0.010453091
0.04916357
0.095763897
0.121987428
0.126903513
0.116260164
0.081919245
0.023617667
-0.043693532
-0.102618338
-0.133876437
-0.139393064
-0.134754566
-0.115989555
-0.073759532
-0.02614468
0.013727481
0.045950068
0.064777159
0.06708796
0.048325273
0.024960948
0.010626891
-0.007895644
-0.027622008
-0.033065811
-0.031577003
-0.029277001
-0.01663438
-0.004794058
-0.005815772
-0.012986861
-0.021349728
-0.025532446
-0.027903506
-0.043002969
-0.054146309
-0.052064776
-0.044442963
-0.038239933
-0.028728579
-0.009248277
0.011274288
0.021934118
0.020459498
0.01670014
0.012892527
0.004649288
-0.011324584
-0.034731518
-0.051298058
-0.050387813
-0.044492625
-0.040509522
-0.032754036
-0.018711938
0.002418809
0.021305759
0.032069302
0.039771286
0.038718935
0.027535796
0.015996823
-0.000331398
-0.022570141
-0.041034441
-0.047672502
-0.048363686
-0.046031336
-0.040564159
-0.028576142
-0.013062903
-0.005027103
0.008855006
0.027468412
0.034362868
0.035721617
0.035219098
0.02481132
0.011511479
0.004200184
-0.001494007
-0.008228464
-0.02090158
-0.03155459
-0.03525668
-0.035011293
-0.034713132
-0.035169637
-0.030181598
-0.016659852
-0.005743074
-0.003878472
-0.006833853
-0.00762463
-0.00335968
0.000969088
0.003711926
-0.002248603
-0.006389809
-0.012557348
-0.019101925
-0.017129954
-0.015828677
-0.017807539
-0.008389732
0.010207103
0.026844187
0.039604674
0.046090013
0.057822635
0.076685045
0.088315088
0.08738178
0.077685473
0.057056933
0.03206662
0.002591244
-0.025687373
-0.031761457
-0.026666555
-0.022671293
-0.013249562
0.007163601
0.029591457
0.048036608
0.062010388
0.063974823
0.058616582
0.051902467
0.037905731
0.026434356
0.01152874
-0.00307985
-0.00345163
0.005225884
0.026508629
0.05479513
0.077633591
0.100178424
0.119710581
0.135125226
0.144297414
0.141260291
0.125166165
0.112041855
0.099388079
0.085701251
0.075009342
0.068509195
0.072371836
0.083748947
0.090974458
0.096917654
0.107415627
0.10969874
0.110725676
0.113363829
0.109382484
0.100263942
0.087874099
0.077061723
0.077269319
0.078235365
0.083848521
0.101182933
0.122706511
0.130618303
0.142244321
0.149408691
0.151701523
0.149585631
0.134317092
0.120693098
0.120676763
0.121975194
0.123658478
0.130900817
0.142901731
0.156009545
0.167028207
0.179650188
0.192930551
0.193706227
0.180872663
0.170456162
0.15745972
0.144505185
0.144336396
0.147278006
0.149756641
0.157982057
0.172857166
0.194142539
0.220851302
0.234804124
0.237240252
0.237366538
0.233735175
0.221371428
0.194619392
0.152728117
0.115251603
0.093374321
0.082291072
0.082762508
0.093936297
0.101474423
0.111968666
0.126570184
0.13871624
0.139816081
0.129763284
0.116172989
0.098293689
0.068605113
0.044174376
0.027890157
0.017719901
0.026132641
0.045800117
0.073636864
0.109175627
0.142210073
0.160584827
0.168983412
0.163563701
0.144318397
0.117089769
0.088233468
0.059993419
0.040705303
0.020979533
0.01301911
0.022202484
0.038011205
0.057316415
0.07596965
0.092585323
0.106365721
0.10881151
0.09418305
0.074625978
0.051939114
0.024031339
0.001173382
-0.015811008
-0.030259503
-0.031155779
-0.012294212
0.01390284
0.037875436
0.053625512
0.066487619
0.07782118
0.072491817
0.055052175
0.039592546
0.032296433
0.020793356
0.005439433
-0.008331705
-0.003461297
0.010564252
0.018853298
0.037525214
0.057314635
0.06623931
0.072196402
0.073368554
0.062361019
0.045046514
0.025153772
0.011687223
0.008298413
0.007738248
0.007501391
0.011733963
0.018421403
0.03281599
0.049014838
0.057568821
0.058997063
0.05210132
0.036015676
0.022981125
0.012890742
0.000697917
-0.007191941
-0.007422263
-0.002976375
0.004801361
0.020460021
0.042922318
0.063095071
0.069488092
0.06571764
0.059793429
0.048131159
0.026287079
0.001466311
-0.015098542
-0.012776346
-0.005050452
-0.001815359
0.012600609
0.034690312
0.056249803
0.076992628
0.091176548
0.092121369
0.08351888
0.069477342
0.050295111
0.029010591
0.00781832
-0.005534548
-0.005255259
-0.001820737
0.002955125
0.01710927
0.034929983
0.053487636
0.065190187
0.066256113
0.065016647
0.056995091
0.043756047
0.035562493
0.025914818
0.017066224
0.012609896
0.009215285
0.008558104
0.019448168
0.029119536
0.035616393
0.04919189
0.056638442
0.055485861
0.052034096
0.045223248
0.037377606
0.026885341
0.013886521
0.013037137
0.018397593
0.02146496
0.024335799
0.019957602
0.018408012
0.018135908
0.017108031
0.013826922
0.013215447
0.008393716
0.010399048
0.014913276
0.013061235
0.017329627
0.025629772
0.031496405
0.041384471
0.047003143
0.035616212
0.026242744
0.022710817
0.010546436
-0.004286515
-0.011748184
-0.010117162
-0.004339471
-0.001261294
0.003303889
0.016691339
0.030666164
0.042818812
0.056001345
0.058722238
0.055424768
0.046595976
0.028685338
0.008848417
-0.012436252
-0.036805315
-0.046422543
-0.043289456
-0.047399811
-0.04671351
-0.033959752
-0.016310783
0.002009677
0.010109443
0.014733036
0.021437417
0.015613412
-0.00264172
-0.013767395
-0.022045476
-0.032907274
-0.040184496
-0.045262065
-0.043113281
-0.038222748
-0.034424507
-0.023697522
-0.008965388
-0.008941486
-0.012046631
-0.009407146
-0.010921859
-0.017371108
-0.020532906
-0.016272395
-0.012580179
-0.018550428
-0.024306994
-0.029900905
-0.029211654
-0.02488545
-0.03233556
-0.041814901
-0.044552444
-0.042927205
-0.045641015
-0.03484717
-0.018197944
-0.009789127
-0.003001233
0.004739575
0.012237768
0.012786729
-0.001647008
-0.02035848
-0.025981223
-0.0327017
-0.04257763
-0.043903059
-0.043549834
-0.041215777
-0.035524825
-0.019951291
0.000425645
0.014296823
0.025559262
0.033730234
0.031256788
0.021655646
0.006449488
-0.012095342
-0.026385233
-0.032993375
-0.035137179
-0.031044939
-0.016136489
0.001023155
0.016994773
0.033914026
0.047035942
0.053271173
0.051609316
0.040343996
0.028051008
0.015317797
-0.006729042
-0.024011285
-0.032090418
-0.033648639
-0.023764512
-0.006926285
0.014224342
0.034373237
0.049150749
0.057768079
0.056551362
0.037269866
0.01419324
-0.002135766
-0.025371994
-0.050993617
-0.065964072
-0.065303595
-0.049460554
-0.032410929
-0.017466585
0.003170796
0.025023948
0.039003613
0.047993126
0.045241118
0.035487001
0.023796277
0.003139513
-0.018200973
-0.023279061
-0.023059416
-0.023805602
-0.019206009
-0.004214151
0.011363112
0.016445632
0.015311003
0.017149227
0.011429114
-0.005997509
-0.023074828
-0.03696917
-0.055655941
-0.069548299
-0.074039519
-0.070847963
-0.057092997
-0.044084363
-0.029865514
-0.015601578
-0.010934742
-0.01543737
-0.022274405
-0.032145177
-0.046518893
-0.064119012
-0.077561324
-0.080019088
-0.080782476
-0.081600228
-0.066734767
-0.040719326
-0.016865485
0.007380386
0.024103015
0.028473459
0.029083551
0.021994558
0.004493475
-0.01039006
-0.025504629
-0.036206601
-0.039868605
-0.039163442
-0.034067907
-0.023590547
-0.016286158
-0.006665266
0.00137064
-0.003057025
-0.011633432
-0.023962308
-0.043936896
-0.058287682
-0.065182805
-0.073741473
-0.078335645
-0.072598366
-0.061120074
-0.053884118
-0.059554578
-0.066769725
-0.061603239
-0.065329313
-0.071570711
-0.071831306
-0.06033182
-0.029996613
0.022604088
0.093557644
0.188323462
0.3029518
0.412804553
0.519674513
0.620112831
0.701720374
0.759149631
0.79960409
0.837706028
0.880717251
0.921219795
0.970471769
1.045725807
1.149818882
1.278306081
1.425322277
1.576228953
1.713961481
1.829860803
1.918677721
1.966396646
1.963547841
1.904760532
1.795439676
1.647603799
1.487072198
1.346309296
1.233299648
1.147826471
1.084458791
1.032429254
0.992428045
0.964176629
0.924507223
0.85258512
0.754887147
0.643594814
0.520166554
0.368000393
0.187259558
0.010079628
-0.126519192
-0.223645708
-0.274129629
-0.272427035
-0.230703025
-0.171104594
-0.110379628
-0.058108493
-0.000873789
0.042307877
0.060028319
0.056846322
0.028934254
-0.01188554
-0.054507598
-0.100044017
-0.133179847
-0.143146663
-0.140162227
-0.135292711
-0.117804718
-0.092166357
-0.068912874
-0.056604032
-0.050067307
-0.042051945
-0.04632925
-0.064182983
-0.08515882
-0.101897522
-0.114870412
-0.112867316
-0.107148087
-0.100245472
-0.097482769
-0.100328782
-0.101743268
-0.105662844
-0.117741998
-0.128404681
-0.130192234
-0.134327977
-0.137371591
-0.136817115
-0.128500572
-0.110724105
-0.091063983
-0.070897169
-0.052741064
-0.040541203
-0.045053734
-0.058451231
-0.0712356
-0.094479915
-0.12535469
-0.146836888
-0.149463383
-0.147981874
-0.150772894
-0.137962117
-0.113203309
-0.08817655
-0.062901022
-0.044996026
-0.033031498
-0.027089183
-0.038612317
-0.059564267
-0.078856627
-0.098956743
-0.117553095
-0.128150154
-0.132482685
-0.12367871
-0.108151817
-0.099256831
-0.087787171
-0.070419361
-0.058215185
-0.057275016
-0.062601061
-0.068184551
-0.076285575
-0.089837533
-0.097887063
-0.103978366
-0.107407511
-0.107303308
-0.103529601
-0.100441071
-0.091553256
-0.079201902
-0.076264648
-0.082000707
-0.085035931
-0.089488024
-0.093196748
-0.098003079
-0.107013409
-0.108791209
-0.102437119
-0.098544638
-0.09404653
-0.093990554
-0.095297274
-0.092554683
-0.090894306
-0.090973835
-0.08906687
-0.095236536
-0.103551775
-0.104296789
-0.099127012
-0.093138067
-0.09083439
-0.090006821
-0.081548485
-0.071251332
-0.069629115
-0.074805721
-0.080492541
-0.08105834
-0.08167457
-0.081502706
-0.083881517
-0.087472941
-0.087335114
-0.083907616
-0.07891357
-0.075201275
-0.072560879
-0.062556268
-0.062408226
-0.068952956
-0.066683131
-0.069860558
-0.073674328
-0.07140921
-0.068587924
-0.067057803
-0.061005492
-0.054899685
-0.049377632
-0.043102941
-0.035627318
-0.030286561
-0.027151983
-0.023044784
-0.018606043
-0.02140232
-0.032039322
-0.03925529
-0.034971796
-0.028290927
-0.027441601
-0.027690728
-0.024243895
-0.024163096
-0.035324998
-0.042433216
-0.037084463
-0.031874414
-0.029518101
-0.029954416
-0.024406247
-0.010376721
-0.002576195
-0.004790804
-0.000717953
0.004196393
0.004881728
0.003697679
-0.005597871
-0.014966481
-0.015273297
-0.015502952
-0.012964131
-0.000440085
0.010747992
0.018781008
0.022480846
0.03052309
0.040682868
0.045065525
0.042276069
0.035493177
0.022432549
0.020206715
0.018109395
0.000367763
-0.01108767
0.002210193
0.013194036
0.009299227
0.004598911
0.005006902
0.010504589
0.01934391
0.017184471
0.013137759
0.014711882
0.013671884
0.010848782
0.00894119
0.009354308
0.012112254
0.009862834
0.008972935
0.008692146
0.004346605
0.001517937
0.001165036
-0.007341165
-0.01628054
-0.021732924
-0.02578248
-0.02773292
-0.026285483
-0.031638336
-0.034482033
-0.030887582
-0.027106767
-0.027323885
-0.035409559
-0.042728285
-0.050041466
-0.06452879
-0.081926781
-0.093759214
-0.104614814
-0.11741741
-0.126634615
-0.131383079
-0.124408975
-0.114947368
-0.116488402
-0.121496738
-0.124139682
-0.127077132
-0.128353391
-0.135409892
-0.147213292
-0.157470386
-0.170884589
-0.17440159
-0.177395596
-0.179761301
-0.170897183
-0.1585887
-0.163820299
-0.163558915
-0.150555822
-0.140207906
-0.139504933
-0.142069752
-0.145277765
-0.144425102
-0.143905211
-0.149353078
-0.149724858
-0.145296331
-0.146582569
-0.144199358
-0.143700102
-0.147427257
-0.154413781
-0.158358388
-0.158681324
-0.163648825
-0.169538501
-0.169808252
-0.16723009
-0.167957749
-0.168511471
-0.166681733
-0.163371711
-0.157412064
-0.156387995
-0.159516109
-0.16559787
-0.170059808
-0.177071745
-0.18871733
-0.192179954
-0.189904014
-0.189697284
-0.194753449
-0.194591732
-0.183928951
-0.174514148
-0.172963861
-0.175635338
-0.1805657
-0.183489473
-0.18292841
-0.18333055
-0.185223799
-0.180345795
-0.186717333
-0.190639944
-0.182616522
-0.181212788
-0.186892613
-0.194868025
-0.203003069
-0.203799643
-0.203475155
-0.208120416
-0.209906257
-0.207293779
-0.201199112
-0.191070658
-0.176853744
-0.166841298
-0.170434457
-0.170858499
-0.164892212
-0.16666958
-0.175600711
-0.184436304
-0.193471028
-0.201851781
-0.202933278
-0.202610881
-0.198562099
-0.190344042
-0.180321379
-0.161432869
-0.142837434
-0.139506379
-0.144841075
-0.14339244
-0.14573999
-0.157557559
-0.170856082
-0.186358313
-0.197933396
-0.206006336
-0.20986148
-0.203779476
-0.188979903
-0.182380364
-0.177219439
-0.166618264
-0.158167782
-0.158623616
-0.172768804
-0.193470797
-0.202919975
-0.205000462
-0.218717578
-0.226595307
-0.223963827
-0.217080068
-0.210058651
-0.201629407
-0.187772924
-0.169310071
-0.168530163
-0.175933732
-0.175141548
-0.17798681
-0.186769418
-0.192617911
-0.19688284
-0.195479473
-0.189108966
-0.180312984
-0.162351797
-0.14793278
-0.14184725
-0.137592322
-0.136057137
-0.133338824
-0.133726074
-0.148852894
-0.160989467
-0.155408487
-0.154749776
-0.16130666
-0.159174227
-0.154228703
-0.150942626
-0.1460748
-0.142300156
-0.141857017
-0.151285534
-0.166311883
-0.171902431
-0.182476597
-0.197234264
-0.210529805
-0.217215257
-0.215881646
-0.210948597
-0.201583688
-0.195468059
-0.191456278
-0.188199957
-0.181811787
-0.172638097
-0.178185695
-0.1902172
-0.199994969
-0.205623916
-0.207424133
-0.210258927
-0.207753733
-0.199363937
-0.18628034
-0.175193356
-0.162964612
-0.155271816
-0.14729653
-0.145514248
-0.152624425
-0.16362956
-0.176042965
-0.189180443
-0.196476516
-0.199763579
-0.207462448
-0.204652664
-0.193016088
-0.181672568
-0.172946448
-0.170113801
-0.164180572
-0.1537319
-0.152875411
-0.162280378
-0.165294866
-0.166108553
-0.167922551
-0.17109003
-0.181201765
-0.180105887
-0.172867468
-0.175687233
-0.17780662
-0.173427031
-0.175664704
-0.174551043
-0.165074542
-0.15924822
-0.158178729
-0.157112127
-0.155436905
-0.152636032
-0.147193709
-0.152475856
-0.165612575
-0.171413635
-0.170343153
-0.175568092
-0.185079136
-0.190865612
-0.185112121
-0.179376929
-0.174712854
-0.166700778
-0.16238229
-0.150098139
-0.138258943
-0.134089788
-0.135397518
-0.135406967
-0.139700335
-0.143274565
-0.148708841
-0.16541262
-0.17090852
-0.166097073
-0.162453477
-0.161119362
-0.158872761
-0.145982784
-0.130977416
-0.125368923
-0.113388579
-0.10677945
-0.11168365
-0.117641461
-0.119697972
-0.122592786
-0.128993826
-0.139730004
-0.144980329
-0.137387948
-0.131083997
-0.130624372
-0.121858791
-0.107762648
-0.091266247
-0.081112722
-0.081766659
-0.081382622
-0.075829554
-0.077756386
-0.086678187
-0.096061876
-0.099395139
-0.104230285
-0.114203624
-0.114038267
-0.11154194
-0.118610622
-0.131244021
-0.129571548
-0.119879953
-0.116628552
-0.119436974
-0.117034391
-0.116167821
-0.123478382
-0.134365591
-0.142867839
-0.148589429
-0.163699616
-0.175017169
-0.179177006
-0.184856896
-0.191026103
-0.192168228
-0.186430202
-0.171659456
-0.159310492
-0.147227103
-0.132332447
-0.128280551
-0.134134764
-0.140137954
-0.146625146
-0.159103919
-0.174495753
-0.189499063
-0.193008414
-0.19351026
-0.194376959
-0.188998144
-0.172719018
-0.162592908
-0.151993012
-0.139157933
-0.128760842
-0.134589358
-0.14540242
-0.152995346
-0.151461771
-0.15859995
-0.171379656
-0.177371465
-0.176046247
-0.170878398
-0.157227059
-0.147017008
-0.138285193
-0.131690457
-0.140095595
-0.152319213
-0.156121536
-0.160439503
-0.169832021
-0.17804755
-0.181593954
-0.174182547
-0.16093741
-0.149304775
-0.137657619
-0.128655848
-0.128479031
-0.132084369
-0.136648712
-0.145327004
-0.165404073
-0.183841794
-0.181143521
-0.156388125
-0.121241609
-0.065745429
0.022289044
0.131384764
0.241016849
0.345660877
0.447101196
0.537769506
0.597865465
0.635038761
0.669482762
0.703391866
0.736850123
0.775326396
0.829030794
0.903422566
0.999143084
1.12858024
1.282163631
1.420361677
1.530225305
1.625221231
1.699040088
1.721062186
1.696217971
1.631082374
1.528174586
1.399573948
1.256083692
1.127255438
1.041613892
0.978387951
0.918967282
0.88317767
0.859326367
0.831835568
0.789181428
0.72180537
0.628672371
0.514215481
0.37351507
0.225695353
0.072655645
-0.08563406
-0.214973723
-0.290594249
-0.315361906
-0.310335346
-0.277601266
-0.222441101
-0.164994455
-0.115665714
-0.075555329
-0.048181914
-0.045700176
-0.055725135
-0.081763207
-0.129145508
-0.178276616
-0.215966606
-0.238611846
-0.246029168
-0.23981977
-0.229228999
-0.211559061
-0.185267376
-0.154930817
-0.134268443
-0.127392327
-0.130403744
-0.133381649
-0.148735942
-0.177833353
-0.201760268
-0.215071195
-0.222385041
-0.226729653
-0.225589475
-0.212670436
-0.198448895
-0.186608003
-0.169479231
-0.154597757
-0.156450935
-0.161456203
-0.164157496
-0.171586967
-0.175709489
-0.176855918
-0.178058758
-0.16922801
-0.154140063
-0.146251005
-0.136379941
-0.125331343
-0.112534141
-0.107768128
-0.112027726
-0.119543724
-0.12395175
-0.143568122
-0.161714833
-0.160028883
-0.153697637
-0.149579387
-0.153192772
-0.151584956
-0.137111233
-0.124173703
-0.119971335
-0.117307868
-0.111489295
-0.113322772
-0.113207869
-0.1242936
-0.136663769
-0.141510844
-0.138264577
-0.13065421
-0.127699228
-0.135639571
-0.138828588
-0.136618354
-0.129266162
-0.125883654
-0.127438125
-0.126801885
-0.116833451
-0.110466463
-0.113780321
-0.113031066
-0.111630713
-0.110076053
-0.102840743
-0.101254429
-0.105397395
-0.114037494
-0.12462823
-0.128374325
-0.131356586
-0.140694466
-0.137715335
-0.131096333
-0.125948492
-0.119823187
-0.115635749
-0.111517455
-0.095621686
-0.086919872
-0.092025748
-0.095081815
-0.098730476
-0.107176247
-0.113328033
-0.120994965
-0.126098951
-0.1288639
-0.127946233
-0.127482832
-0.125048747
-0.126534536
-0.120968555
-0.111319802
-0.111320028
-0.117339184
-0.117336912
-0.11889709
-0.126335537
-0.132856471
-0.140723968
-0.14241248
-0.132705689
-0.126724517
-0.12888047
-0.128766448
-0.122010309
-0.118124154
-0.117382824
-0.114758467
-0.111925607
-0.108335635
-0.100344326
-0.099364166
-0.108007524
-0.103188269
-0.090158066
-0.084467559
-0.076858872
-0.06711108
-0.066871072
-0.065506209
-0.058011458
-0.062992808
-0.070732987
-0.0723281
-0.063868341
-0.054625903
-0.052210674
-0.046660133
-0.040442832
-0.030372556
-0.013448893
0.002344246
0.005241102
0.003855374
0.008265872
0.015007131
0.015965014
0.008197233
0.001714759
0.003269033
0.011189588
0.018307061
0.021979479
0.022218444
0.024890965
0.030956288
0.034688935
0.026840959
0.019708015
0.009083164
0.001105245
-0.003969186
-0.010024882
-0.012324898
-0.010675933
-0.008486036
-0.000700076
0.009376768
0.014334026
0.022939148
0.025391754
0.016496489
0.010717635
0.008101963
0.005082865
0.002203133
-0.006189129
-0.009210677
-0.002624526
0.007105079
0.017896769
0.032259959
0.046586132
0.051465847
0.054968106
0.05482573
0.051488965
0.036035824
0.02195657
0.019855246
0.015128177
0.004684275
0.001763805
0.005892489
0.008980487
0.007546389
0.003020824
6.80E-05
-0.004140611
-0.017755827
-0.036219703
-0.055379549
-0.077724761
-0.092698133
-0.098018134
-0.102946117
-0.109443388
-0.112185366
-0.106429127
-0.086760601
-0.079772358
-0.089737381
-0.092345313
-0.087555278
-0.092595881
-0.104113223
-0.11343773
-0.116916418
-0.113243808
-0.108724828
-0.101416642
-0.09012073
-0.086226658
-0.077438832
-0.069441006
-0.070565671
-0.071534247
-0.077319535
-0.091157087
-0.097702145
-0.103299671
-0.124312562
-0.138442033
-0.138976375
-0.136919405
-0.132974678
-0.131390848
-0.127701445
-0.123413128
-0.125706055
-0.129206554
-0.133876637
-0.144040433
-0.154539454
-0.164982447
-0.171036922
-0.17270182
-0.183505712
-0.193591208
-0.182670339
-0.171862522
-0.171450818
-0.169608472
-0.164153097
-0.165379245
-0.173003088
-0.181229179
-0.179923739
-0.174856974
-0.175963066
-0.17856343
-0.174507109
-0.168199981
-0.158517817
-0.146622433
-0.137720025
-0.126812318
-0.117492042
-0.121824461
-0.125338414
-0.129127356
-0.13703826
-0.138908343
-0.143800364
-0.147188212
-0.139055524
-0.134888581
-0.131566822
-0.124175394
-0.124779781
-0.127209682
-0.123896463
-0.125796636
-0.134415297
-0.139922477
-0.144336155
-0.145732336
-0.156437707
-0.166164864
-0.1600629
-0.152674342
-0.154809271
-0.15036466
-0.146128068
-0.149607527
-0.152923366
-0.156784224
-0.164551525
-0.170378025
-0.175390644
-0.176878779
-0.176448443
-0.174110048
-0.168281632
-0.166707038
-0.164306079
-0.157987652
-0.154464118
-0.158104731
-0.156857676
-0.158256138
-0.170506748
-0.178642281
-0.178707878
-0.178943844
-0.177929327
-0.177659491
-0.171542382
-0.161317629
-0.156914263
-0.152276277
-0.14618994
-0.143145474
-0.147258006
-0.152260472
-0.153566925
-0.150391392
-0.157897544
-0.168349845
-0.168238049
-0.166353509
-0.171806097
-0.171982404
-0.169456902
-0.166875835
-0.160837289
-0.161789917
-0.167967481
-0.168368272
-0.17277921
-0.184836026
-0.188104887
-0.188168168
-0.186697957
-0.192504899
-0.197555912
-0.190960948
-0.187934785
-0.193743897
-0.189650089
-0.18386176
-0.17850092
-0.172590058
-0.173058828
-0.174766835
-0.168536507
-0.169189061
-0.169577118
-0.166609023
-0.16626203
-0.162583614
-0.154681974
-0.158708007
-0.163831709
-0.160216169
-0.155992265
-0.152237005
-0.156958201
-0.164087809
-0.163485688
-0.164954552
-0.17526549
-0.177191684
-0.174546092
-0.175217304
-0.18519702
-0.189592888
-0.180622226
-0.168585085
-0.16981899
-0.174641679
-0.170291454
-0.169876516
-0.172344193
-0.179478249
-0.184927547
-0.187263323
-0.18605611
-0.183958514
-0.181777548
-0.176521066
-0.173406902
-0.172830208
-0.169292873
-0.163307056
-0.16429116
-0.175479362
-0.176864352
-0.176187219
-0.186979342
-0.194650519
-0.190607435
-0.188379296
-0.190724558
-0.191695236
-0.190642879
-0.177161723
-0.177977518
-0.18880238
-0.185184235
-0.180382017
-0.190293997
-0.200456881
-0.201119467
-0.199379352
-0.203357626
-0.208377521
-0.201110737
-0.191660278
-0.190560417
-0.190690565
-0.18111722
-0.171893226
-0.170853148
-0.174445436
-0.178635761
-0.180902394
-0.183326486
-0.188761121
-0.192046941
-0.194232355
-0.200754917
-0.198547804
-0.188050095
-0.183118715
-0.176859677
-0.169412461
-0.164730768
-0.164403413
-0.167550732
-0.165816233
-0.16645359
-0.172489542
-0.174927899
-0.17095183
-0.170082645
-0.169262991
-0.167848839
-0.16351415
-0.1540906
-0.143378305
-0.139969101
-0.136120663
-0.133708112
-0.129262525
-0.13208658
-0.140420643
-0.1356217
-0.126314884
-0.125483649
-0.124478409
-0.116941653
-0.114666194
-0.115418114
-0.110763899
-0.111940362
-0.117796509
-0.124820504
-0.13724597
-0.140214192
-0.143956308
-0.152955187
-0.156051275
-0.155469372
-0.149761145
-0.150677241
-0.159998753
-0.161366906
-0.155150031
-0.160378017
-0.169758573
-0.175770207
-0.174808524
-0.172349452
-0.175088477
-0.178020267
-0.172437055
-0.168843827
-0.170809235
-0.170788185
-0.171961152
-0.178133797
-0.181728289
-0.182877273
-0.183606885
-0.181072382
-0.175794048
-0.164836382
-0.15088185
-0.145170674
-0.140306394
-0.136957396
-0.138510508
-0.145748113
-0.157620818
-0.178172595
-0.193646781
-0.202764722
-0.217131771
-0.221695609
-0.220166301
-0.21931022
-0.211051246
-0.194348955
-0.179867866
-0.167495253
-0.15779837
-0.155527811
-0.16126808
-0.171309677
-0.189773971
-0.203971189
-0.218923515
-0.232949675
-0.235192396
-0.231979506
-0.223941987
-0.211861701
-0.202277983
-0.195933918
-0.186178896
-0.178455862
-0.179986278
-0.189725685
-0.197605674
-0.19901578
-0.209424427
-0.217003745
-0.210116797
-0.202550109
-0.192425396
-0.173792055
-0.160972731
-0.153792832
-0.145858256
-0.145045345
-0.147331635
-0.151030918
-0.15541379
-0.139611542
-0.107634383
-0.056299395
0.016131677
0.107758493
0.208365268
0.308234217
0.406322044
0.498591743
0.570248445
0.614632083
0.644572585
0.677107044
0.714576176
0.749237367
0.788630527
0.856990707
0.961005427
1.08316213
1.211830315
1.350091307
1.472190458
1.563367661
1.63474544
1.663934892
1.64106322
1.577025704
1.47490213
1.346628109
1.204147662
1.069369524
0.978287845
0.920600775
0.867072509
0.822751736
0.795006351
0.765188784
0.723635031
0.659643573
0.564087717
0.456384713
0.33266352
0.183118317
0.027679563
-0.113747489
-0.231156669
-0.314096073
-0.348822602
-0.337772271
-0.294291087
-0.242705051
-0.189922448
-0.138836637
-0.104820695
-0.082574481
-0.070507789
-0.082736601
-0.115654215
-0.150937077
-0.186774789
-0.215086628
-0.232505655
-0.242969989
-0.24184566
-0.229598845
-0.210118735
-0.189850329
-0.173919478
-0.161418259
-0.148972619
-0.149647491
-0.16117209
-0.170404803
-0.178915359
-0.18954887
-0.201852587
-0.206286579
-0.201193715
-0.199560026
-0.205641501
-0.20455851
-0.202959929
-0.21183666
-0.214524704
-0.212890791
-0.21764981
-0.218732502
-0.218610893
-0.206499548
-0.193380288
-0.188839362
-0.18174986
-0.174868485
-0.181436535
-0.186875593
-0.191648893
-0.204323883
-0.218827994
-0.228847545
-0.237288128
-0.238700622
-0.235583204
-0.225495028
-0.210956241
-0.198153379
-0.178509622
-0.16420733
-0.167759984
-0.171720148
-0.167581745
-0.170894784
-0.183567126
-0.194290055
-0.197999998
-0.205282618
-0.201638736
-0.185560994
-0.168409642
-0.158116903
-0.149783646
-0.132252623
-0.123745342
-0.128634581
-0.134395089
-0.142737564
-0.149893432
-0.152988035
-0.155423552
-0.156193272
-0.151065278
-0.147602272
-0.142018937
-0.132911582
-0.121919879
-0.112392477
-0.109124964
-0.111221298
-0.114102487
-0.119654917
-0.134482132
-0.145203733
-0.147737512
-0.14650695
-0.14553411
-0.145403605
-0.138110921
-0.129832162
-0.128667261
-0.130412141
-0.128406762
-0.129487895
-0.131051866
-0.132208801
-0.136991056
-0.136568442
-0.137423375
-0.139449722
-0.132957114
-0.124583823
-0.119141055
-0.106425601
-0.102043246
-0.107281302
-0.106056423
-0.102946236
-0.102294611
-0.104364467
-0.108502542
-0.112279222
-0.111573439
-0.109586021
-0.100781418
-0.093773746
-0.097184979
-0.104508301
-0.103007223
-0.099671778
-0.098239294
-0.103272108
-0.113271718
-0.112801065
-0.109585615
-0.114569799
-0.116916559
-0.115951678
-0.115067859
-0.111613095
-0.107791524
-0.105601905
-0.103829722
-0.107095987
-0.103951975
-0.09399772
-0.084995729
-0.082951642
-0.078140482
-0.070069218
-0.063380914
-0.059719489
-0.056583918
-0.047204295
-0.040468555
-0.043918564
-0.041819749
-0.04129265
-0.046481079
-0.048723064
-0.044689268
-0.036459601
-0.027520994
-0.022685315
-0.017942752
-0.009279241
0.000506109
0.002947654
0.000995444
-0.001982273
-0.003275388
-0.009970471
-0.018122836
-0.020927558
-0.018856189
-0.019734081
-0.014746256
-0.003374816
0.008715259
0.01881542
0.025307784
0.034767152
0.041012371
0.044100908
0.048273527
0.048866782
0.045217182
0.043581236
0.042090128
0.040747987
0.042471035
0.043154153
0.037744161
0.031297206
0.027001507
0.021155549
0.016103459
0.011141114
0.009415475
0.007843539
0.006074925
0.005513669
0.010402014
0.007954553
-0.000481798
-0.003274725
-0.004394602
-0.008371994
-0.016340314
-0.031162524
-0.039623117
-0.041651787
-0.04353645
-0.038082777
-0.031685568
-0.022292874
-0.011263906
-0.000142496
0.006614768
0.005906368
-0.005800774
-0.016354135
-0.022919481
-0.036108578
-0.056210463
-0.071486307
-0.085475488
-0.097257603
-0.097622564
-0.088117228
-0.076959177
-0.070832232
-0.068599521
-0.059984651
-0.055276972
-0.066112299
-0.078366673
-0.086180468
-0.096107142
-0.110359389
-0.124109159
-0.130789708
-0.133348785
-0.13641176
-0.131329898
-0.116109101
-0.100234501
-0.087422946
-0.078346035
-0.083369304
-0.084348539
-0.082513073
-0.09245058
-0.104191131
-0.112372866
-0.124459989
-0.139977459
-0.15472633
-0.163948776
-0.160421188
-0.151465622
-0.144882296
-0.135816971
-0.131585393
-0.12348164
-0.11059787
-0.108679847
-0.117036449
-0.12251317
-0.125530553
-0.131179761
-0.144360109
-0.157938266
-0.161906507
-0.160518094
-0.158381516
-0.156501398
-0.149261658
-0.141354854
-0.136669478
-0.130153076
-0.122672456
-0.112892417
-0.105191145
-0.102624214
-0.101940944
-0.109648044
-0.116107545
-0.115650498
-0.117685678
-0.116784253
-0.117726578
-0.125505115
-0.124286387
-0.117343073
-0.111973167
-0.109425306
-0.108847412
-0.109270058
-0.10262759
-0.102810837
-0.103737271
-0.096419477
-0.0920122
-0.091822233
-0.090273438
-0.086829647
-0.088888807
-0.094670161
-0.103120447
-0.10986371
-0.12221238
-0.135245735
-0.136947969
-0.140384622
-0.15088595
-0.152201383
-0.140591756
-0.124835574
-0.11614059
-0.114969743
-0.10880769
-0.102907169
-0.107060581
-0.113439889
-0.119537263
-0.12822165
-0.139905607
-0.145796361
-0.148188901
-0.147750252
-0.145744733
-0.141159925
-0.125710577
-0.1107195
-0.101896515
-0.08605469
-0.071813861
-0.06834303
-0.064185239
-0.067192795
-0.073580208
-0.07908099
-0.097176461
-0.11435332
-0.121343784
-0.127307875
-0.132930374
-0.134422318
-0.132435027
-0.124910003
-0.114897764
-0.11238129
-0.110135125
-0.104640884
-0.108066443
-0.112302505
-0.117039471
-0.126861585
-0.136335198
-0.147073117
-0.155765789
-0.162180176
-0.170135938
-0.175473991
-0.177033255
-0.182647667
-0.187168185
-0.187505804
-0.18568372
-0.180881974
-0.171457598
-0.169927672
-0.16391106
-0.157034862
-0.156821418
-0.154578553
-0.156317727
-0.160721102
-0.160169705
-0.163832546
-0.166803435
-0.163261115
-0.16462189
-0.1696538
-0.16452784
-0.155793702
-0.153282571
-0.148954546
-0.146719993
-0.144270089
-0.143950403
-0.149702944
-0.152088161
-0.152381942
-0.160727141
-0.166307904
-0.170510461
-0.17103727
-0.167951555
-0.163644421
-0.158733453
-0.149916386
-0.153812913
-0.155829833
-0.149079118
-0.146366257
-0.145250219
-0.140160088
-0.138540494
-0.13599144
-0.140369337
-0.151825061
-0.154769335
-0.147772826
-0.148423828
-0.15017694
-0.151229068
-0.151453643
-0.15241115
-0.160436678
-0.166787122
-0.170815984
-0.17513591
-0.176730217
-0.167984696
-0.159627977
-0.157589166
-0.156800671
-0.158987972
-0.155492977
-0.155172377
-0.163397623
-0.16716185
-0.166275685
-0.174613499
-0.181358871
-0.184195965
-0.182402955
-0.175823032
-0.169713901
-0.161502844
-0.154495717
-0.159599856
-0.165120067
-0.165673392
-0.181244618
-0.201375448
-0.207451744
-0.215031511
-0.220146086
-0.215510777
-0.209598601
-0.197558372
-0.184990661
-0.180625301
-0.17496579
-0.168974311
-0.169864095
-0.176044696
-0.188234507
-0.195719995
-0.195709865
-0.195711447
-0.1908505
-0.179066072
-0.168137033
-0.155531488
-0.14010737
-0.128724348
-0.118846998
-0.113222592
-0.117702878
-0.122250434
-0.129132416
-0.138265429
-0.142643061
-0.142759028
-0.132938077
-0.114504128
-0.105747341
-0.095692386
-0.082710972
-0.076054185
-0.075397731
-0.079491944
-0.092988525
-0.107481316
-0.114755895
-0.121201079
-0.131302844
-0.151124477
-0.16067922
-0.148122805
-0.124728785
-0.11365226
-0.104528848
-0.084987353
-0.070170306
-0.073353455
-0.086734326
-0.098425662
-0.112648969
-0.129084917
-0.142308507
-0.15122329
-0.165412764
-0.18134692
-0.183413307
-0.174777909
-0.164114211
-0.156262329
-0.145889652
-0.136218777
-0.130869638
-0.137835358
-0.146581791
-0.159235546
-0.171809664
-0.183413034
-0.189398947
-0.192427062
-0.193436613
-0.196551002
-0.204949811
-0.202750032
-0.197932952
-0.198338327
-0.198727175
-0.196894026
-0.187794121
-0.175644871
-0.167965689
-0.162535132
-0.159265621
-0.161018633
-0.158401436
-0.154595238
-0.153261377
-0.153556928
-0.161266883
-0.168032286
-0.164628944
-0.162235698
-0.164629181
-0.159254776
-0.149149141
-0.136722838
-0.126445077
-0.128498413
-0.135482958
-0.140243515
-0.144869366
-0.152879406
-0.161562631
-0.173405111
-0.174508647
-0.168900249
-0.167648222
-0.168737925
-0.168711354
-0.162129133
-0.159959475
-0.167025236
-0.175639994
-0.174535129
-0.177126069
-0.180097049
-0.165213362
-0.132213128
-0.075600117
-0.001163468
0.087908973
0.196385439
0.306785173
0.403494748
0.490013427
0.561094973
0.606556332
0.638572286
0.669362269
0.709286413
0.760481888
0.812265946
0.88658907
0.995827666
1.126157067
1.271649306
1.418112345
1.544551303
1.640013016
1.704496082
1.726585436
1.706509623
1.653414609
1.553784005
1.421087675
1.274881132
1.141680813
1.044985788
0.980795548
0.929889191
0.899998473
0.878849521
0.850894182
0.817429814
0.759738156
0.661871821
0.538781264
0.409593605
0.268005735
0.106910065
-0.054496067
-0.188780452
-0.28416424
-0.333907339
-0.325966247
-0.276833308
-0.204612402
-0.131517891
-0.075077949
-0.032364348
-0.006553021
-0.007048491
-0.02729558
-0.05927514
-0.105560358
-0.15671817
-0.200791566
-0.234599871
-0.246642526
-0.237476001
-0.219535861
-0.190476848
-0.153184685
-0.118660602
-0.093986772
-0.080549466
-0.083635247
-0.089437715
-0.10043392
-0.125025475
-0.148300424
-0.167763616
-0.182904446
-0.187514929
-0.181727562
-0.17579911
-0.167712406
-0.157695254
-0.145760206
-0.141352531
-0.144161542
-0.143110779
-0.139504238
-0.145276624
-0.149280765
-0.14454624
-0.14345824
-0.145829791
-0.143867511
-0.13405476
-0.121991371
-0.113233687
-0.104172364
-0.100971127
-0.095571544
-0.087751712
-0.08221474
-0.085678403
-0.08194096
-0.070908059
-0.067578797
-0.064001656
-0.063219528
-0.067225461
-0.067946405
-0.074262678
-0.080058773
-0.078290134
-0.07804365
-0.085569215
-0.085266003
-0.081618791
-0.079093875
-0.079016999
-0.088463766
-0.108193699
-0.117651565
-0.120045211
-0.124490916
-0.125199507
-0.127663626
-0.129802087
-0.124023062
-0.114183185
-0.099441777
-0.088033528
-0.083003638
-0.082961695
-0.091910901
-0.106196898
-0.114597169
-0.11854245
-0.123431791
-0.122979611
-0.117521679
-0.111210776
-0.10205185
-0.090757542
-0.077442095
-0.074207121
-0.076698992
-0.078728515
-0.088036111
-0.105260444
-0.127129823
-0.144851099
-0.157629104
-0.157219708
-0.145407823
-0.124311429
-0.099442694
-0.076502266
-0.055934338
-0.036318017
-0.025705264
-0.023029888
-0.031702492
-0.045474084
-0.065602117
-0.091296176
-0.119367199
-0.133964406
-0.132265811
-0.127995049
-0.115668225
-0.084523681
-0.049145882
-0.013850734
0.013056799
0.027019261
0.033826215
0.032971938
0.017712011
0.000815016
-0.017939411
-0.040420705
-0.060844781
-0.071385384
-0.066596283
-0.052579577
-0.03588388
-0.013165361
0.013314835
0.037258538
0.060860545
0.076211696
0.073516014
0.068101599
0.057244322
0.040855847
0.022107057
0.003061967
-0.013613953
-0.023829734
-0.029116283
-0.030560022
-0.022658739
-0.012146224
-0.002830893
0.00451813
0.01122258
0.0246895
0.040370515
0.050716929
0.055161158
0.05614525
0.049201052
0.045068275
0.043821098
0.040965507
0.031470748
0.009709513
-0.014699376
-0.016129158
-0.008226124
-0.001180591
0.002069193
0.012749197
0.038307414
0.066619676
0.087316164
0.101175234
0.110514485
0.110505502
0.108349722
0.110276746
0.104358823
0.09116993
0.074348075
0.06613908
0.070005061
0.073369982
0.083549767
0.106880369
0.130020318
0.143371752
0.149542074
0.152761321
0.15417938
0.150990525
0.129365725
0.108209427
0.094789947
0.078315228
0.066534183
0.060436982
0.056106993
0.057746936
0.06386824
0.076602063
0.093068752
0.097733595
0.088681871
0.080764007
0.074588252
0.065368315
0.055660876
0.045047734
0.039825867
0.038764791
0.03797541
0.041911468
0.053498466
0.061360637
0.068098906
0.07456472
0.073077489
0.064545972
0.053473642
0.052850668
0.051956414
0.037112249
0.015432277
0.012618287
0.025835413
0.032688912
0.027303376
0.017487166
0.022950258
0.029535336
0.018421119
0.00726319
-0.002750361
-0.020935855
-0.035234944
-0.043397264
-0.052193015
-0.058619807
-0.067070026
-0.075432229
-0.070111133
-0.055963838
-0.036162953
-0.020008401
-0.023717309
-0.036224639
-0.037025658
-0.035085276
-0.038829595
-0.047222934
-0.057920745
-0.064477085
-0.061576135
-0.064252328
-0.071063717
-0.067188754
-0.058427034
-0.046098784
-0.030853726
-0.01741535
-0.008298761
-0.010547124
-0.019531546
-0.026851605
-0.034359247
-0.042309473
-0.046619923
-0.057201868
-0.067310589
-0.077856711
-0.072623325
-0.051346829
-0.028640587
-0.01576648
-0.005285983
0.007355305
0.016241723
0.016329501
0.00365536
-0.02062888
-0.04640789
-0.068921184
-0.085199534
-0.096549022
-0.102002223
-0.100659661
-0.086861674
-0.064158516
-0.031080261
-0.004741954
0.004652269
0.014324837
0.030375071
0.034089733
0.026062599
0.008103668
-0.021046462
-0.050149583
-0.069979099
-0.080822891
-0.082899641
-0.082623994
-0.075681656
-0.052906852
-0.024986103
-0.009038857
-0.001142942
0.007121184
0.016039351
0.012993867
-0.008473648
-0.02876915
-0.053500172
-0.091834272
-0.119906843
-0.130219448
-0.133974659
-0.12930513
-0.115371123
-0.100319194
-0.084112669
-0.06425981
-0.040476725
-0.017328251
-0.004891259
0.001518799
0.00352492
-0.005253009
-0.022267188
-0.041232551
-0.063418648
-0.077009139
-0.085484961
-0.093981501
-0.092570155
-0.079421368
-0.058819517
-0.035018847
-0.014951926
0.005175202
0.028347442
0.041197908
0.037387746
0.026845667
0.00582245
-0.026257491
-0.058133769
-0.080191772
-0.091017494
-0.095938951
-0.098465964
-0.087553088
-0.061636938
-0.031434929
-0.001531989
0.025181884
0.043133461
0.05864558
0.060376846
0.048546485
0.028904225
0.002447828
-0.02806618
-0.057737458
-0.080159452
-0.090972402
-0.089238872
-0.077579431
-0.054047418
-0.030766594
-0.014395968
0.008484961
0.026964853
0.026263561
0.017993483
0.011179519
-0.006959428
-0.030423305
-0.04896144
-0.063625894
-0.072251676
-0.076783784
-0.071400548
-0.056420215
-0.039016291
-0.020799696
-0.005346927
0.00224049
0.004669267
0.002626888
-0.004228841
-0.019451714
-0.044118722
-0.057208223
-0.05297262
-0.05423807
-0.063580351
-0.063351197
-0.056558123
-0.048627616
-0.037101815
-0.026328894
-0.023205958
-0.023021084
-0.028420804
-0.036504892
-0.039026363
-0.04365554
-0.046256057
-0.048119641
-0.049115204
-0.04172446
-0.026957646
-0.022165216
-0.022780428
-0.023040392
-0.025737215
-0.028045673
-0.036460549
-0.05885748
-0.078669452
-0.088150447
-0.086681902
-0.079069104
-0.078775112
-0.076049153
-0.056923374
-0.033073601
-0.016562876
-0.011507158
-0.005717233
0.004623066
0.01718613
0.010594579
-0.00864154
-0.027340191
-0.042985251
-0.048134647
-0.04683243
-0.043955045
-0.034430387
-0.025287404
-0.01452125
0.007209985
0.024011415
0.029231856
0.028918204
0.021164712
0.014293578
-0.004169685
-0.034728073
-0.057317937
-0.068821317
-0.081599304
-0.083953781
-0.06643496
-0.042937218
-0.015561884
0.00873346
0.026641078
0.047077516
0.064725344
0.068445232
0.064483061
0.056432556
0.041957582
0.020321771
-0.005191295
-0.023863438
-0.027026909
-0.017360765
-0.001944221
0.011943142
0.018238042
0.023650828
0.036261315
0.042043933
0.03522624
0.019415948
0.003474772
-0.008835556
-0.030367654
-0.056166579
-0.070004111
-0.075771083
-0.068657407
-0.048090064
-0.024445084
-0.003591565
0.011643897
0.018990853
0.023131657
0.022910382
0.008320471
-0.009719676
-0.025754143
-0.041261532
-0.058119707
-0.069975918
-0.070456258
-0.063181695
-0.056596373
-0.048649799
-0.035400985
-0.023624654
-0.026495529
-0.035407762
-0.042957243
-0.046080941
-0.050316654
-0.070124429
-0.077201725
-0.065729239
-0.059501746
-0.057924059
-0.054880734
-0.048513486
-0.034957361
-0.025092456
-0.017361842
-0.010690105
-0.012514536
-0.022917404
-0.025827799
-0.030249202
-0.031466213
-0.021190662
-0.008621635
0.000587792
0.006446101
0.012795709
0.025508543
0.033670297
0.031724517
0.026557765
0.022519007
0.012377124
-0.00877178
-0.034631938
-0.052854884
-0.061192624
-0.065646454
-0.061602391
-0.052943546
-0.052127338
-0.055212441
-0.051819021
-0.045008316
-0.034075504
-0.036263379
-0.050421925
-0.064657302
-0.079028404
-0.098355465
-0.113199318
-0.120050291
-0.114733545
-0.099997415
-0.077210008
-0.03405553
0.033896159
0.120869062
0.224903188
0.341261672
0.458198888
0.573995245
0.681103417
0.752212266
0.788028704
0.818608766
0.860135074
0.902129423
0.937191208
0.973446539
1.038960504
1.144391412
1.274142782
1.422197046
1.573704602
1.716270707
1.84975416
1.950289419
1.996188401
1.988382283
1.932129472
1.826834418
1.687973605
1.531283662
1.384503145
1.269048538
1.187028411
1.135951193
1.107368249
1.087534001
1.063986475
1.033787043
0.991037375
0.913237444
0.796071775
0.652308748
0.487652795
0.298574206
0.107322486
-0.058526019
-0.179553759
-0.244584567
-0.242001619
-0.195078671
-0.130280997
-0.060677118
0.006240554
0.06792716
0.115923059
0.12738293
0.105740072
0.063412579
0.002634608
-0.065347024
-0.130361806
-0.174299546
-0.187631069
-0.178205216
-0.159205357
-0.122309728
-0.079247405
-0.040048174
-0.006330733
0.013047359
0.012736827
-0.011074479
-0.044322807
-0.073258407
-0.102905745
-0.127492578
-0.124564166
-0.097572093
-0.072839731
-0.044934943
-0.013599179
0.008532704
0.022151785
0.027183112
0.021201642
0.014279928
-0.003690832
-0.032057843
-0.05561843
-0.065734664
-0.057122185
-0.033153275
-0.000614381
0.034031019
0.065724154
0.077019392
0.069177807
0.049928969
0.023751367
-0.010382207
-0.052742671
-0.09392071
-0.11903146
-0.12781606
-0.123431157
-0.100780236
-0.071330324
-0.036456292
0.009556582
0.056659577
0.085121344
0.092344774
0.07527687
0.053348413
0.03396941
0.002687361
-0.038826459
-0.072772501
-0.083021393
-0.071580568
-0.047661239
-0.019354093
0.011007242
0.039663663
0.05827261
0.071623462
0.077107822
0.070878415
0.055691173
0.032482474
0.010777042
-0.008955338
-0.033877014
-0.047198565
-0.044376399
-0.03607905
-0.02095189
0.003757289
0.025631621
0.036496096
0.035738658
0.03149847
0.030707515
0.023999235
0.011518996
0.005682563
-0.004070124
-0.016486316
-0.020650827
-0.023064714
-0.023655397
-0.022731209
-0.018898023
-0.007955607
0.00721192
0.008741655
0.007887465
0.020101506
0.026097594
0.027890941
0.021807374
0.014455386
0.012657196
0.010340792
0.009402776
0.011560096
0.015215121
0.023360764
0.031549067
0.032937509
0.041413454
0.056781165
0.059981059
0.05730081
0.057535438
0.05505991
0.04979258
0.043048521
0.030304465
0.020916922
0.020847593
0.02445227
0.028379813
0.030607844
0.038615163
0.055662713
0.071131217
0.073849425
0.065345861
0.058969691
0.060850942
0.054702017
0.044494993
0.045075852
0.050791729
0.055207103
0.066969035
0.084852954
0.101984628
0.116197986
0.130459887
0.147277704
0.157007258
0.147997114
0.12253718
0.102618531
0.095549692
0.090504239
0.084089505
0.087023009
0.103982471
0.122660983
0.13701784
0.149676141
0.161388457
0.164477889
0.165166476
0.167725488
0.164417856
0.154244879
0.140548594
0.130550049
0.128916145
0.135441342
0.144906625
0.163141802
0.172275775
0.17912161
0.188616563
0.199227216
0.201238367
0.188869389
0.171198113
0.159912185
0.152943082
0.138061224
0.129517176
0.12880272
0.133579003
0.140782914
0.145884944
0.148240018
0.156453897
0.159685529
0.152820549
0.146479716
0.139862223
0.13445979
0.125705497
0.116635558
0.114639495
0.124355147
0.134733589
0.143262101
0.147298594
0.142445908
0.135884464
0.121589215
0.105380177
0.091790395
0.077773742
0.065309458
0.060983546
0.068634028
0.080135989
0.095375432
0.106423407
0.111881381
0.125333504
0.131818502
0.129228249
0.116552787
0.09392043
0.071420877
0.055741328
0.044682121
0.033642251
0.025171627
0.028674771
0.041322359
0.050187911
0.059584796
0.072541442
0.077327365
0.069933951
0.06842327
0.061083501
0.040365734
0.018617113
-0.001338249
-0.018692894
-0.03113514
-0.041229804
-0.038636762
-0.017134517
-0.001451631
0.010057386
0.02282939
0.043527226
0.056416401
0.059622348
0.055230759
0.051222622
0.043264423
0.02639755
0.010685219
0.001878608
0.001156295
0.00097488
0.00204723
0.011442238
0.02178037
0.026485605
0.041048484
0.058257122
0.06136204
0.054154404
0.051952927
0.048509565
0.043855949
0.038119624
0.026341125
0.017319929
0.016510414
0.015979586
0.023428134
0.029266863
0.034732949
0.048025672
0.054439627
0.04947495
0.042908396
0.042815595
0.038542458
0.029631621
0.025716851
0.023403486
0.023155438
0.026208507
0.022525728
0.019803596
0.023529273
0.031079667
0.031845169
0.028355389
0.031382709
0.023002395
0.011595189
0.011788688
0.015345593
0.019017846
0.018393647
0.013767341
0.014059538
0.018806433
0.022224648
0.028343244
0.032180645
0.035934017
0.040144394
0.034803752
0.021380035
0.009751329
-0.00194204
-0.011502029
-0.005896314
-0.000457766
-0.005020259
-0.003962453
0.006851543
0.018225566
0.027851013
0.03255109
0.036502406
0.04239036
0.043467258
0.03550113
0.025624878
0.015115408
0.009146583
0.009565192
0.01773455
0.035476537
0.041122757
0.036663141
0.038960323
0.043984773
0.049021689
0.05080701
0.04456515
0.037942147
0.034850193
0.023258361
0.012975661
0.01347388
0.011788699
0.005520289
0.007932565
0.014128527
0.017262126
0.011738899
-0.001640146
-0.010624508
-0.015563269
-0.024547515
-0.026615194
-0.025973033
-0.031185578
-0.033287894
-0.026794802
-0.017602182
-0.012799928
-0.012436279
-0.011284962
-0.008667028
-0.018368229
-0.033672406
-0.04150604
-0.041664354
-0.038070648
-0.040012197
-0.044300083
-0.032316162
-0.01293471
-0.005333895
-0.002737093
0.00485949
0.009912147
0.012456447
0.006104902
-8.67E-05
0.002142676
0.00196937
-0.002793619
0.006101565
0.019260427
0.028715803
0.036133859
0.038114526
0.031521478
0.017767374
0.006987033
-0.002946527
-0.012574961
-0.027150831
-0.037018293
-0.035997596
-0.03168774
-0.025615345
-0.020187814
-0.012449602
-0.005683242
-0.008932694
-0.01354743
-0.019846343
-0.037980064
-0.059031976
-0.074349678
-0.087049542
-0.092597859
-0.088351434
-0.074943479
-0.056427619
-0.041138965
-0.030287797
-0.009356964
0.006582822
0.003504343
-0.009127857
-0.025189699
-0.044054395
-0.060054041
-0.077164136
-0.085781872
-0.082446344
-0.082355998
-0.074575051
-0.043879584
-0.00926431
0.011801304
0.015227266
0.02010265
0.022282916
0.004646204
-0.02603736
-0.052604299
-0.073273107
-0.094549699
-0.108089249
-0.102347292
-0.079892291
-0.051316604
-0.031760159
-0.007136276
0.026792999
0.048315189
0.049467321
0.041403776
0.021362466
-0.004762785
-0.031160133
-0.057005346
-0.075361523
-0.08290205
-0.075321605
-0.047361505
-0.015450491
0.004964355
0.02426392
0.039516594
0.046187909
0.040569534
0.022853785
0.005849585
-0.01459535
-0.045346925
-0.070762699
-0.08134661
-0.075160343
-0.061922626
-0.048790654
-0.030879537
-0.00262419
0.02288584
0.032468731
0.031206182
0.023534442
0.010067382
-0.004798474
-0.014406375
-0.024378097
-0.037060671
-0.042797273
-0.039978707
-0.026878992
-0.012322459
-0.002261622
0.003641073
0.005340725
0.008583771
0.009901074
0.005432988
0.00063404
-0.008072054
-0.017609506
-0.017472271
-0.008807217
-0.00034759
0.007781143
0.011334138
0.014234807
0.015812919
0.012942548
0.008053402
-0.001981961
-0.020055277
-0.026074698
-0.024204544
-0.027040254
-0.0356824
-0.043697261
-0.038976895
-0.023533297
-0.016274405
-0.022811828
-0.032341223
-0.038618607
-0.043033821
-0.042760915
-0.04494917
-0.046911091
-0.0442663
-0.043011857
-0.037507046
-0.026380043
-0.026380604
-0.023213402
-0.012388935
-0.006122835
-0.005301921
-0.008519622
-0.010168189
-0.013564034
-0.023077605
-0.03224135
-0.033817177
-0.029816188
-0.027475004
-0.027201899
-0.029509989
-0.021953419
-0.010076605
-0.009378477
-0.014286076
-0.015127483
-0.017094611
-0.026192013
-0.037177136
-0.054507466
-0.072317388
-0.081449105
-0.086555701
-0.085280505
-0.088497589
-0.08757764
-0.067626964
-0.048640067
-0.045511809
-0.041874627
-0.03275766
-0.023102523
-0.027207338
-0.046198127
-0.059637238
-0.06536742
-0.078657012
-0.097660447
-0.103147543
-0.08339622
-0.047098636
0.002888988
0.084110991
0.193505611
0.308870908
0.414761705
0.519690923
0.615440706
0.692252325
0.743668494
0.775849431
0.806268662
0.837802415
0.868338527
0.911126089
0.98114678
1.083799762
1.215149799
1.371898147
1.530112444
1.673616796
1.792821047
1.885681794
1.942454286
1.939921641
1.88387254
1.802726746
1.688356977
1.538299083
1.385653861
1.274042456
1.209971719
1.157896427
1.100143958
1.064715493
1.038823388
0.99189501
0.919692407
0.826179237
0.706814338
0.57205603
0.420003262
0.247252926
0.068189156
-0.080984186
-0.181118919
-0.231582571
-0.237062579
-0.207597955
-0.161862535
-0.109855914
-0.055257331
-0.010747215
0.014406647
0.027262543
0.03348364
0.01696913
-0.017057397
-0.056304903
-0.0907683
-0.11392696
-0.12358138
-0.122201577
-0.106760242
-0.087122105
-0.070139657
-0.050650277
-0.030574227
-0.021278457
-0.020306763
-0.02549702
-0.034427746
-0.046074616
-0.062524194
-0.066591933
-0.062222692
-0.064606165
-0.062004485
-0.049350602
-0.047721481
-0.046810951
-0.043520123
-0.043751561
-0.042444712
-0.050835589
-0.060875247
-0.060709208
-0.058109912
-0.056767815
-0.051380047
-0.038520853
-0.019325174
-0.004055746
0.000353182
0.001679972
0.002649951
-0.007024129
-0.025798013
-0.043610187
-0.057285311
-0.071942362
-0.085325865
-0.079998357
-0.064363851
-0.059528446
-0.059037275
-0.049549936
-0.038524975
-0.030976874
-0.026348731
-0.026515532
-0.02590333
-0.028685339
-0.033002144
-0.035152387
-0.041712012
-0.049560972
-0.046820984
-0.037730356
-0.036496865
-0.040173654
-0.041595547
-0.04639602
-0.051102749
-0.056287715
-0.053731706
-0.044556941
-0.027286945
-0.016808936
-0.015237036
-0.019699352
-0.020092487
-0.018858289
-0.027836604
-0.045234163
-0.056726147
-0.063678317
-0.07045023
-0.075720015
-0.075763365
-0.07062584
-0.067147472
-0.058828138
-0.040555141
-0.028244015
-0.031463246
-0.033119042
-0.034265875
-0.048084162
-0.065032966
-0.075149763
-0.080438665
-0.083269411
-0.08770617
-0.082698525
-0.066094494
-0.049471445
-0.039817988
-0.034130666
-0.028007125
-0.026318684
-0.030029416
-0.035199273
-0.04117135
-0.049905821
-0.061393081
-0.066062347
-0.059102752
-0.047631705
-0.031676256
-0.016971152
-0.002614394
0.009350201
0.014339354
0.015544134
0.012088763
0.00100356
-0.011981319
-0.020778768
-0.025354696
-0.023122863
-0.017246417
-0.01678768
-0.007678962
0.009476605
0.02573139
0.033179333
0.037323751
0.035354276
0.034280211
0.029897699
0.025602159
0.024088286
0.017001497
0.012612721
0.017581605
0.022853251
0.025704974
0.035928281
0.045103877
0.048909563
0.053395815
0.05917243
0.066469761
0.065065286
0.058094734
0.05979084
0.067207037
0.066985383
0.072217504
0.081426834
0.090674333
0.095763828
0.096502419
0.10796042
0.121675968
0.112761601
0.097890875
0.096168174
0.097908896
0.094375363
0.084522359
0.079803687
0.090078177
0.099633103
0.103319192
0.111769328
0.120656957
0.123943309
0.128065885
0.129033392
0.120411465
0.111205227
0.104664479
0.103051254
0.106415111
0.103418014
0.099239113
0.107572831
0.122714998
0.138715157
0.143561851
0.136363562
0.13649157
0.142660969
0.141940155
0.138694048
0.130479024
0.113915602
0.103566875
0.102846686
0.097972724
0.078968495
0.059706908
0.054979657
0.054572264
0.039325316
0.027167642
0.028115384
0.024240142
0.014617332
0.010270773
0.006130296
0.004015689
0.000653543
-0.007274842
-0.008064394
-0.008911752
-0.019853156
-0.027730683
-0.026197001
-0.021760666
-0.024865073
-0.038986602
-0.039732813
-0.024920906
-0.021620139
-0.026148834
-0.022025512
-0.014882768
-0.013359815
-0.013993748
-0.011129657
-0.003865872
-0.003043615
-0.014281724
-0.019048603
-0.021756892
-0.027862716
-0.031951445
-0.033795456
-0.034375509
-0.034864795
-0.043581754
-0.041923182
-0.028291813
-0.025032219
-0.032385771
-0.033470455
-0.036285614
-0.035736641
-0.032671137
-0.038916838
-0.048312703
-0.055727541
-0.059064534
-0.057254027
-0.054239936
-0.059966468
-0.064371223
-0.063388452
-0.060962819
-0.060070494
-0.061741559
-0.067076466
-0.065249861
-0.062497581
-0.064086413
-0.066270471
-0.069241838
-0.06708545
-0.065748469
-0.070032433
-0.072612485
-0.075082794
-0.08402183
-0.086066667
-0.081982804
-0.075715915
-0.069414462
-0.071416952
-0.064203935
-0.05232141
-0.052287995
-0.052501801
-0.046163789
-0.046232142
-0.049417282
-0.04822024
-0.051009544
-0.054124772
-0.058989788
-0.063216373
-0.059679906
-0.052552942
-0.045289269
-0.033559218
-0.032145375
-0.033814842
-0.031188749
-0.033630906
-0.037175053
-0.038504405
-0.040988941
-0.046776496
-0.050924609
-0.054552837
-0.054991084
-0.048899245
-0.042337241
-0.032771919
-0.021017212
-0.015114834
-0.008172876
0.002812679
0.003124737
0.000452246
-0.001044704
-0.007744775
-0.013651228
-0.025542111
-0.038162027
-0.044425105
-0.051595875
-0.0534175
-0.043164641
-0.032610309
-0.027910139
-0.022421529
-0.013486409
-0.007213184
-0.014294156
-0.025889432
-0.022597478
-0.025518106
-0.044398042
-0.059835097
-0.066506852
-0.078385457
-0.082902431
-0.076035954
-0.066306496
-0.060682429
-0.059412722
-0.05381617
-0.045063705
-0.047990907
-0.054971921
-0.061874607
-0.071102183
-0.077711377
-0.089584072
-0.095620824
-0.094921976
-0.100925612
-0.106480543
-0.099845015
-0.091615486
-0.089602056
-0.088675762
-0.088616525
-0.081988625
-0.075063839
-0.077802303
-0.081889863
-0.082820408
-0.085004244
-0.092880336
-0.100011439
-0.10514631
-0.106240916
-0.106439242
-0.106021972
-0.100336697
-0.101725304
-0.110462905
-0.109718503
-0.099541831
-0.099874798
-0.103581074
-0.108484512
-0.1074068
-0.104196665
-0.105746463
-0.112996008
-0.111926876
-0.099552401
-0.101908676
-0.106050208
-0.098051059
-0.088009309
-0.091050354
-0.096323859
-0.09599031
-0.096196006
-0.102039226
-0.101534147
-0.098581789
-0.102957797
-0.112324791
-0.121272513
-0.116382813
-0.107309993
-0.108861803
-0.115063689
-0.107189925
-0.100750057
-0.095427035
-0.089973191
-0.089079656
-0.086242108
-0.085648812
-0.097115067
-0.099081077
-0.097679232
-0.109863648
-0.121582151
-0.119961367
-0.119471193
-0.119036923
-0.114075558
-0.102446071
-0.090319087
-0.086986766
-0.089645481
-0.090189843
-0.089055424
-0.085139206
-0.091812883
-0.10802724
-0.116489091
-0.120879083
-0.126071316
-0.129315877
-0.125352746
-0.115438688
-0.108285104
-0.100921118
-0.087509296
-0.072148894
-0.064702137
-0.059672853
-0.058155353
-0.061857192
-0.065185399
-0.062374636
-0.072629694
-0.082254613
-0.079746181
-0.077839115
-0.082501506
-0.085889592
-0.086278341
-0.080987305
-0.075319331
-0.07752391
-0.075788741
-0.067254828
-0.068044069
-0.074285494
-0.074127598
-0.073729218
-0.074228658
-0.078698375
-0.082098294
-0.083243204
-0.086797771
-0.094306791
-0.103259757
-0.10117959
-0.096717909
-0.100735483
-0.10334771
-0.09192126
-0.087018114
-0.096295127
-0.096377996
-0.087735756
-0.083583473
-0.087836108
-0.092126213
-0.095884277
-0.097466174
-0.104300604
-0.105023414
-0.095567036
-0.096182066
-0.099382521
-0.097823729
-0.098138073
-0.103765255
-0.107817412
-0.108013962
-0.106707212
-0.113000168
-0.12393671
-0.126726095
-0.12395293
-0.124723185
-0.12470738
-0.119062006
-0.112235815
-0.107693476
-0.112609619
-0.121596563
-0.129526336
-0.14749157
-0.161923355
-0.167852123
-0.180266762
-0.188504078
-0.184590645
-0.178464986
-0.172029243
-0.15701236
-0.142664907
-0.12834109
-0.118048809
-0.117057965
-0.121648073
-0.130049843
-0.135596658
-0.145058626
-0.160093062
-0.169719262
-0.169718252
-0.170871929
-0.164988427
-0.147705354
-0.139110441
-0.132260031
-0.127700479
-0.131100136
-0.133078595
-0.132279034
-0.144676793
-0.157063766
-0.156605513
-0.154345929
-0.14853882
-0.142717181
-0.135463974
-0.125912485
-0.121066586
-0.114077926
-0.103637199
-0.109624253
-0.130117479
-0.138794084
-0.135672311
-0.120070779
-0.088604704
-0.03601688
0.050340623
0.155501176
0.258395286
0.357819364
0.461706648
0.547475078
0.60119684
0.635352417
0.667997532
0.703273755
0.730314885
0.760718748
0.815845037
0.899245556
1.005523053
1.137848395
1.291253588
1.436679611
1.558618395
1.658073672
1.724498179
1.743358546
1.709037048
1.636892035
1.530446623
1.388831629
1.241745106
1.13128175
1.062013618
1.002663106
0.946606626
0.914301184
0.896562367
0.865470923
0.816573625
0.748992706
0.645076076
0.518304236
0.374303712
0.209976403
0.036910172
-0.120639667
-0.244837791
-0.318060204
-0.33508487
-0.313490686
-0.269218837
-0.2084
-0.147677462
-0.097337778
-0.064583474
-0.046244342
-0.043133912
-0.06413402
-0.105956744
-0.156414324
-0.206944974
-0.242109532
-0.263794463
-0.269924558
-0.252588996
-0.224596976
-0.195582349
-0.161851775
-0.135205308
-0.120947895
-0.10925939
-0.108011578
-0.128029957
